-0.070523 -0.070359 -0.027611 0.019576 0.013986 0.027303 0.013492 0.005765 
-0.14484 -0.091897 -0.016102 0.026317 0.014972 0.024673 0.012013 0.012835 
-0.12774 -0.052273 -0.0042642 0.049499 0.023851 0.014643 0.018425 0.020727 
-0.040764 0.014479 0.020562 0.039141 0.029605 0.016781 0.027961 0.01004 
0.066598 0.068736 0.063803 0.038155 -0.0047575 0.028619 0.017767 0.00066819 
0.091589 0.097508 0.046211 0.092411 -0.056055 0.028783 0.0421 0.0014903 
0.075641 0.082546 0.040785 0.032893 0.01826 0.0079024 0.022042 0.0095465 
0.10063 0.11872 0.097179 0.025824 0.070873 0.010204 0.049992 0.05624 
0.20734 0.21589 0.18744 0.047362 0.031907 0.041443 0.071202 0.1077 
0.28116 0.31848 0.1784 0.079916 0.034373 0.046211 0.0421 0.077614 
0.28231 0.25173 0.081889 0.0085601 0.0062583 0.021056 0.031414 0.089945 
0.10162 0.098166 -0.045368 -0.013636 0.025166 0.017932 0.031578 0.060186 
-0.1723 -0.20584 -0.20074 -0.020048 0.01415 0.0032988 0.01415 0.014315 
-0.37715 -0.49126 -0.32487 -0.0057439 0.017438 -0.018733 -0.0004827 -0.10719 
-0.45081 -0.39919 -0.18841 0.051965 0.060022 0.045389 0.024673 -0.065262 
-0.47449 -0.23609 -0.036818 0.086328 0.067913 0.030427 0.011355 -0.092719 
-0.35627 -0.073647 0.016616 0.066598 0.017274 0.0031344 0.010862 -0.073976 
-0.10801 -0.065919 -0.021034 0.016288 -0.0138 0.00066819 0.028783 -0.013965 
0.082546 -0.009361 0.0062583 0.045718 0.011191 0.022371 0.065283 0.066434 
0.22164 0.12825 0.13121 0.072517 0.047691 0.052294 0.069393 0.09833 
0.30862 0.20651 0.13236 0.067749 0.038319 0.033222 0.050157 0.11033 
0.31108 0.25074 0.11526 0.0037921 -0.0011404 0.013164 0.066105 0.058542 
0.28741 0.2366 0.085835 -0.010019 -0.0029489 -0.010348 0.02829 0.062981 
0.20898 0.16212 0.057391 0.0088889 -0.0083746 -0.028926 0.016452 0.058377 
0.13236 0.1128 0.02122 0.0098754 0.017767 -0.021363 0.0059294 0.025659 
0.064132 0.097672 0.02829 -0.0062372 0.021056 -0.031721 0.0227 0.029276 
0.044896 0.064461 0.056733 -0.00064712 0.009711 -0.027118 0.020069 0.019905 
0.038155 0.064296 -0.00064712 0.032236 0.017438 -0.034516 0.03536 0.03651 
0.030427 0.034373 -0.0016336 0.012013 0.039799 -0.016431 0.036675 0.024508 
0.027139 0.039141 0.018754 0.026974 0.023357 0.0023123 0.040292 0.040292 
0.024344 0.029769 0.033058 0.011684 0.029605 -0.012814 0.025824 0.020233 
-0.0072237 0.01826 0.01563 0.048184 0.022535 -0.0024557 0.03536 0.03092 
-0.043724 0.007738 -0.010512 0.029112 0.03388 0.0056006 0.025495 0.005765 
-0.012978 0.015959 0.0079024 0.031742 0.044238 0.024508 0.035524 0.025166 
0.0079024 0.063968 0.040621 0.049335 0.035524 0.0019835 0.021384 0.012013 
0.043416 0.10425 0.093233 0.060844 0.027632 -0.0013048 0.024015 0.054432 
0.11855 0.11937 0.098494 0.041443 0.047033 -0.0088678 0.018754 0.07597 
0.17939 0.19961 0.159 0.034537 0.026646 -0.011334 0.054432 0.10359 
0.22493 0.26603 0.19599 0.033058 -0.027447 -0.01232 0.037661 0.07449 
0.24038 0.29004 0.22098 -0.06148 -0.078744 -0.065426 -0.00064712 0.056569 
0.18777 0.17117 0.068078 -0.093541 -0.030899 -0.051451 -0.024816 0.025166 
-0.057699 -0.18643 -0.22951 -0.076277 0.022864 -0.034845 -0.04882 -0.079895 
-0.34 -0.49833 -0.4421 0.0024767 0.11329 0.01004 0.0051074 -0.085156 
-0.34723 -0.40165 -0.27505 0.14585 0.18317 0.096028 0.078272 -0.0054151 
-0.27012 -0.071509 0.023522 0.22098 0.20405 0.10491 0.08008 -0.035338 
-0.1376 0.16262 0.18629 0.19632 0.13647 0.052294 0.0087245 -0.069043 
-0.012814 0.089945 0.10704 0.066763 0.029605 -0.0096899 -0.0067304 -0.034188 
-0.070194 -0.15996 -0.06296 -0.064275 -0.026953 -0.034188 0.03092 -0.0031133 
-0.050629 -0.20468 -0.0138 -0.03353 -0.014951 0.00083261 0.032564 0.076627 
0.076463 0.050979 0.070051 0.042758 0.039305 0.0069159 0.057391 0.11921 
0.28313 0.27935 0.17577 0.052952 0.065118 0.051965 0.049335 0.1562 
0.30072 0.31157 0.18202 0.064296 0.048513 0.066598 0.046211 0.13713 
0.22444 0.22328 0.15505 0.045882 0.034044 0.061666 0.056076 0.11313 
0.15555 0.1636 0.12957 0.041772 0.032071 0.041772 0.011848 0.093891 
0.074983 0.16081 0.093891 0.0039565 0.040128 0.025659 0.0047785 0.049828 
-0.0064016 0.13121 0.048019 -0.03205 0.017438 0.016123 0.0041209 0.01974 
-0.031557 0.11658 0.022535 -0.009361 -0.00097594 0.010533 0.00083261 -0.0055795 
-0.032543 0.042594 0.0072447 -0.017253 0.02681 0.043745 0.0072447 -0.024323 
0.017932 -0.021692 -0.013965 0.020562 0.057555 0.025001 0.015465 0.023851 
0.023522 -0.047834 0.0065871 0.041607 0.054925 0.068407 0.02122 0.025824 
-0.0019624 -0.052931 0.027468 0.083204 0.051636 0.080573 0.042923 0.047033 
-0.0082102 0.0090533 0.046211 0.040621 0.051636 0.080244 0.017767 0.03388 
-0.021363 0.019083 0.035524 0.044731 0.066269 0.072024 0.040621 0.023851 
0.01711 0.019411 0.030098 0.038977 0.038977 0.057227 0.031085 0.0065871 
0.010862 0.038155 0.016616 0.0026412 0.028125 0.052787 0.029441 0.004943 
0.046211 0.027303 0.026646 -0.022843 0.0018191 0.047855 -0.0024557 0.020398 
0.072681 0.029605 0.049992 -0.022021 0.029934 0.062488 0.028454 0.055911 
0.034866 0.041772 0.010697 0.04095 0.03947 0.08419 0.056733 0.06035 
0.040128 0.077285 0.036182 0.039634 0.039141 0.10293 0.040621 0.064296 
0.1202 0.13171 0.075641 0.078272 0.069558 0.082382 0.01974 0.069722 
0.20388 0.21802 0.1562 0.11066 0.09126 0.080244 0.037332 0.062652 
0.14042 0.20405 0.17511 0.12924 0.097344 0.11395 0.033387 0.05065 
-0.048163 0.033222 0.016616 0.045224 0.052952 0.085177 0.026974 -0.0091966 
-0.2305 -0.14221 -0.095678 -0.054739 -0.00064712 0.03947 0.0064227 -0.035503 
-0.25598 -0.14615 -0.06 -0.017253 -0.010019 0.03388 0.031742 -0.021692 
-0.0965 -0.0080457 0.0324 0.025001 0.011684 0.035524 0.039799 0.0031344 
0.12299 0.076792 0.040128 0.013328 0.021549 0.068242 0.023522 -0.0004827 
0.17001 0.034537 0.013492 0.032729 0.032236 0.034044 0.00066819 -0.013965 
-0.015444 -0.058521 -0.042408 0.044567 0.022535 0.025166 -0.0016336 -0.052437 
-0.1746 -0.049971 0.0079024 0.054103 0.04654 0.038977 0.023851 -0.012814 
-0.054246 0.028125 0.058542 0.062323 0.055089 0.0786 0.052787 0.057884 
0.23003 0.12644 0.089287 0.076134 0.049664 0.11 0.075312 0.13582 
0.36813 0.16853 0.12168 0.074654 0.014972 0.090767 0.086821 0.12069 
0.30434 0.17347 0.098659 0.017932 -0.0022913 0.046375 0.036675 0.10392 
0.1294 0.099316 0.046046 0.0028056 -0.0080457 0.019083 0.0093821 0.045882 
-0.076113 0.013328 -0.047341 -0.018733 -0.033365 0.037497 0.013164 -0.01939 
-0.11804 0.031907 -0.036818 -0.049478 -0.060329 0.052459 0.010369 -0.0406 
0.014479 0.089616 0.0056006 -0.042079 -0.044217 0.0062583 0.03947 -0.0096899 
0.12661 0.11757 0.031249 -0.065755 0.018425 -0.00015387 0.026152 0.048677 
0.083368 0.025659 0.036839 0.005765 -0.030899 0.012506 0.028947 0.017932 
0.063968 -0.0075525 -0.0027845 0.023686 0.027632 0.062323 0.048348 0.022371 
0.092082 0.016945 0.01004 0.048348 0.038977 0.058706 0.037661 0.038155 
0.089945 0.076956 0.066927 0.13187 0.08863 0.06594 0.056569 0.059364 
-0.054246 0.10573 0.10376 0.1294 0.076956 0.057884 0.063474 0.022042 
-0.13826 0.10967 0.11115 0.080738 0.032071 0.036017 0.041772 0.03388 
-0.087293 0.11214 0.086163 0.066927 0.02533 0.026152 0.020069 -0.004593 
0.053281 0.13088 0.07301 0.031578 -0.012156 -0.0078813 0.025659 0.043087 
0.14864 0.1322 0.088301 -0.0087034 -0.014129 0.017274 0.05624 0.080902 
0.18925 0.10293 0.069722 0.018589 0.0047785 0.027632 0.045718 0.099152 
0.23397 0.15949 0.080738 0.01826 -0.0055795 0.015301 0.013164 0.059364 
0.26998 0.20997 0.057884 0.018096 -0.0082102 -0.0032777 0.0069159 0.047033 
0.19895 0.16771 0.050486 -0.038956 -0.0050863 -0.028104 0.020398 0.012835 
0.032893 -0.023829 -0.0059084 -0.073811 -0.068714 -0.045368 0.018918 0.017438 
-0.10357 -0.14895 -0.084991 -0.032872 -0.054082 -0.031557 0.013492 0.019083 
-0.15454 -0.18627 -0.12593 0.017438 -0.0098543 0.021878 0.026317 0.00050378 
-0.30695 -0.1723 -0.14599 0.046704 0.03947 0.018425 -0.0055795 -0.088444 
-0.38587 -0.16342 -0.15816 0.048348 0.058049 0.014315 0.0059294 -0.16309 
-0.31303 -0.16687 -0.14878 0.10589 0.081889 0.025824 0.046868 -0.08532 
-0.20978 -0.17427 -0.066906 0.10014 0.079258 0.052952 0.070051 -0.023829 
0.070051 -0.0771 0.090931 0.11937 0.10145 0.080573 0.08156 0.090767 
0.22394 0.034537 0.15555 0.10803 0.069064 0.047197 0.087972 0.11494 
0.20931 0.1197 0.15686 0.04654 -0.00081153 0.0054362 0.052952 0.11099 
0.20076 0.27014 0.15259 -0.021199 -0.051615 -0.042573 0.039634 0.08156 
0.17133 0.3022 0.1299 -0.038462 -0.036983 -0.041586 0.0079024 0.059035 
0.093891 0.19583 0.05065 -0.00015387 0.0044497 -0.027118 0.0013258 0.005765 
-0.015609 0.060186 -0.0068948 -0.0067304 -0.012156 -0.016102 -0.0031133 0.025659 
-0.084169 -0.064111 -0.046025 -0.0078813 0.0054362 -0.0095255 0.015794 0.010204 
-0.085649 -0.046847 -0.029584 0.0011614 0.018754 -0.0050863 0.032071 0.019083 
0.016945 0.015959 0.0062583 0.027961 0.037497 0.0075736 0.011684 0.024673 
0.066269 0.070873 0.04095 -0.0070593 0.039141 -0.017253 -0.0087034 0.038319 
0.063639 0.072846 0.026974 0.0072447 0.022864 -0.013307 0.005765 0.029276 
0.03947 0.064296 0.032893 0.048513 0.021056 -0.0050863 0.012177 0.031578 
0.038648 0.045389 0.066105 0.055747 0.052952 -0.012156 0.025659 0.036017 
0.023193 0.041772 0.10491 0.055582 0.056404 -0.0004827 0.023193 0.041278 
0.010204 0.061666 0.094384 0.036017 0.015794 0.00297 0.010533 0.030263 
-0.0083746 0.11214 0.010204 0.050979 0.017274 0.017438 -0.0055795 0.026481 
0.07449 0.082711 0.054432 0.037332 0.024837 -0.011005 0.044073 0.045553 
0.20158 0.17314 0.10787 0.03799 0.076299 0.013657 0.025988 0.094877 
0.29924 0.30615 0.12497 -0.027447 -0.0070593 -0.00015387 0.01826 0.051308 
0.24548 0.29185 0.072188 -0.018075 -0.0031133 -0.02235 0.00017495 0.013164 
-0.006566 0.025001 -0.083512 -0.027447 0.019083 -0.017417 -0.04323 -0.048985 
-0.27292 -0.31714 -0.24184 -0.0055795 0.073668 -0.012156 -0.013307 -0.10456 
-0.32109 -0.33112 -0.1136 0.13286 0.11066 0.063145 0.063474 -0.031721 
-0.15141 -0.13711 0.025824 0.19912 0.14585 0.13582 0.10293 0.066763 
-0.064933 -0.064768 0.004943 0.14091 0.13384 0.10507 0.08156 0.12497 
-0.07973 -0.10127 -0.064604 0.034373 0.085506 0.031742 0.029605 0.043909 
-0.10702 -0.067728 -0.057205 0.01415 0.017438 -0.012814 -0.011005 0.011848 
-0.073318 0.0098754 -0.0024557 -0.047834 -0.03353 -0.014129 -0.024816 -0.0029489 
0.024015 0.050814 0.027632 -0.020048 -0.029913 -0.0004827 -0.0083746 0.048677 
0.16788 0.11674 0.10902 0.019576 0.0085601 0.022371 0.01563 0.063803 
0.22756 0.2297 0.1756 0.071037 0.065776 -0.0057439 0.050486 0.090109 
0.2486 0.27491 0.15127 0.011684 0.027303 0.00066819 0.063145 0.062817 
0.20503 0.26932 0.1031 -0.008539 0.012177 0.0095465 0.026646 0.046868 
0.1271 0.18728 0.071037 0.040456 0.015794 0.029441 0.016123 0.027139 
0.069886 0.065118 0.012999 0.010533 0.036839 0.023851 0.01152 0.01152 
0.069393 0.05065 0.036675 -0.0013048 0.034702 0.032564 0.020891 0.015301 
0.095206 0.090438 0.072353 0.02681 0.025166 0.027303 0.043416 0.037661 
0.15768 0.11773 0.044402 0.047526 0.036346 0.038483 0.031742 0.058542 
0.1664 0.09833 0.02681 0.031085 0.041278 0.0075736 0.0026412 0.045718 
0.096193 0.050157 0.025495 0.030263 0.016123 -0.0016336 0.0067515 0.026646 
0.028454 0.0095465 0.031907 0.0075736 -0.004593 -0.018075 0.031907 0.031578 
-0.0042642 0.0011614 0.010369 -0.016102 -0.010512 0.015301 0.090931 0.030427 
0.029441 0.0324 0.026646 0.007738 0.037826 0.041607 0.061008 0.034209 
-0.0087034 0.0024767 -0.0013048 0.016616 0.0592 0.027632 0.023357 0.016945 
-0.13119 -0.032872 -0.018075 0.043909 0.059364 0.023522 -0.018733 -0.092719 
-0.18265 0.014315 0.024344 0.066105 0.082053 0.024673 0.027632 -0.054739 
-0.083183 0.076134 0.049499 0.087314 0.086821 0.059857 0.082382 -0.045203 
0.0095465 0.073339 0.067749 0.047691 0.067585 0.033387 0.044567 0.0074092 
0.065776 -0.009361 0.025001 0.024837 0.0069159 0.0070803 0.022535 0.023851 
0.071202 -0.069865 0.00017495 -0.02794 -0.017582 -0.01528 0.0079024 0.042923 
0.087314 -0.048656 -0.036983 -0.016431 0.00297 0.010204 0.023357 0.060844 
0.13434 0.070215 0.035195 0.015137 0.023028 0.037168 0.035688 0.058213 
0.13894 0.21654 0.15127 0.046211 0.0039565 0.018425 0.016123 0.032729 
0.17001 0.35695 0.23085 0.025824 0.00050378 -0.01939 0.0098754 0.041114 
0.20323 0.32966 0.15094 -0.01117 -0.0049219 -0.027447 0.0064227 0.029934 
0.21391 0.19024 0.035195 0.052952 0.034537 -0.0016336 0.0011614 0.055254 
0.025166 -0.037311 -0.071509 0.065776 0.077285 0.051801 0.063145 0.023193 
-0.32832 -0.35299 -0.23938 0.037826 0.057884 0.0060938 0.014479 -0.02087 
-0.34493 -0.48534 -0.23625 0.0026412 0.0041209 -0.0013048 0.018425 -0.047669 
-0.17871 -0.3081 -0.028104 0.078107 0.023028 -0.016431 0.060186 -0.0027845 
-0.00097594 -0.033859 0.12151 0.072681 0.033222 0.020069 0.058049 0.0324 
0.073175 0.14782 0.18892 0.047033 0.00297 0.00297 0.091096 0.051801 
0.12332 0.21638 0.13351 0.025495 0.012506 -0.012156 0.020727 0.050486 
0.086163 0.18119 0.023028 -0.027447 0.011026 -0.010841 0.021384 0.040456 
0.00033937 0.092576 0.015301 0.0093821 0.021713 -0.0049219 0.024508 0.054596 
-0.0011404 0.073175 0.073504 0.060022 0.029112 0.026974 0.016452 0.046704 
0.051801 0.087314 0.098659 0.082711 0.028125 0.015959 0.025495 0.047855 
0.086821 0.13417 0.10474 0.043909 0.036182 0.0023123 0.018589 0.032893 
0.082875 0.12233 0.063145 0.022371 0.056076 -0.010183 0.016781 0.02829 
0.055089 0.072681 0.044073 0.02681 0.023193 -0.0049219 -0.0011404 -0.0014692 
-0.011992 0.055911 0.025659 0.016945 0.033551 0.019247 0.0093821 0.0080668 
0.034044 0.041443 0.035031 0.022535 0.0019835 0.0070803 0.023028 1.0539e-005 
0.045553 0.042923 0.047033 0.049006 0.016616 -0.0022913 0.014643 0.049335 
0.051636 0.041772 0.02681 0.066763 0.01974 0.0069159 0.017274 0.038319 
0.049992 0.02681 0.03947 0.0324 0.015137 0.012999 0.033222 0.06035 
0.089452 0.055582 0.073339 0.017603 -0.0047575 0.0036276 0.034537 0.065447 
0.15867 0.083368 0.1003 0.019411 0.017767 -0.018733 0.033551 0.0786 
0.22493 0.12266 0.037826 0.055418 0.030098 0.012506 0.024837 0.069722 
0.14535 0.099974 0.01711 0.06035 0.080573 0.047033 0.044567 0.058542 
-0.15158 -0.027282 -0.008539 0.079587 0.085012 0.056404 0.026152 -0.046025 
-0.30925 -0.088444 -0.017582 0.0592 0.042758 0.023028 0.030756 -0.071016 
-0.27719 -0.082854 -0.064111 -0.023829 0.0039565 0.01004 0.0024767 -0.057863 
-0.12396 -0.0075525 -0.034845 -0.02794 -0.019719 -0.0047575 -0.0039354 -0.016431 
-0.0004827 -0.0013048 -0.0052507 -0.0082102 -0.012978 -0.023665 -0.0070593 0.01563 
0.021549 -0.1233 -0.038791 0.052623 0.039963 0.014808 -0.011005 0.030263 
-0.0503 -0.13859 0.017932 0.049006 0.062817 0.026317 0.015137 0.02829 
-0.039284 -0.014787 0.073175 0.077614 0.059364 0.042923 0.062981 0.044731 
0.072681 0.10803 0.13483 0.093726 0.066598 0.060022 0.049992 0.079587 
0.15703 0.084355 0.089616 0.037168 0.021713 0.039634 0.034866 0.074654 
0.14782 0.077614 0.05772 -0.012485 0.019411 0.049992 0.014643 0.065118 
0.13483 0.09833 0.011191 0.0036276 0.031249 0.043416 0.029769 0.051472 
0.14667 0.063145 -0.00081153 0.06594 0.047197 0.047362 0.041114 0.079751 
0.15045 0.096193 0.055911 0.074654 0.048513 0.069558 0.054103 0.082382 
0.20125 0.20783 0.15045 0.047526 0.025166 0.038812 0.031907 0.094055 
0.18317 0.25732 0.18646 -0.043724 -0.044052 0.0018191 0.017932 -0.0032777 
0.083368 0.27935 0.11888 -0.042408 -0.082854 -0.021363 -0.013636 -0.039942 
-0.0868 0.2103 -0.026131 -0.1062 -0.044381 -0.03764 -0.029091 -0.046683 
-0.21011 -0.035667 -0.14665 -0.069536 0.0054362 0.013492 -0.022021 -0.03501 
-0.22852 -0.1718 -0.11787 0.043745 0.058377 0.051472 0.037661 0.027961 
-0.11409 -0.17591 -0.083512 0.095206 0.075641 0.10474 0.049664 0.081395 
-0.017253 -0.1621 0.031414 0.12529 0.11559 0.083368 0.082875 0.066927 
0.058213 -0.11623 0.063474 0.1225 0.098001 0.077778 0.066105 0.016288 
0.082875 -0.047341 0.050486 0.11132 0.085999 0.058706 0.036182 -0.07825 
0.064954 0.044073 0.061501 0.065283 0.046704 0.068407 0.015301 -0.089595 
0.15045 0.19402 0.086821 0.031907 0.02122 0.03388 0.0079024 1.0539e-005 
0.19221 0.23331 0.095371 -0.01232 0.0014903 0.012835 0.05065 0.040456 
0.12595 0.18399 0.069393 0.015301 0.012013 -0.0042642 0.02533 0.086657 
0.0044497 0.069229 0.01711 -0.02498 0.035031 0.013164 0.03536 0.091918 
-0.10406 -0.045203 -0.081868 -0.020377 -0.0004827 0.052952 0.026974 0.081067 
-0.068879 -0.045203 -0.023829 0.044238 0.025166 0.060679 0.039141 0.06183 
-0.017088 -0.009361 0.066763 0.040621 0.020069 0.031578 0.041607 0.011191 
0.049828 0.049006 0.088958 0.013328 0.0028056 0.020562 -0.00081153 -0.026789 
0.11378 0.10178 0.060679 -0.0138 -0.048327 0.021713 -0.0078813 0.013328 
0.16163 0.097508 0.021713 -0.009361 -0.018075 0.03388 -0.0029489 0.02829 
0.09981 0.031742 -0.02794 -0.020377 0.024344 0.030427 0.01267 0.042594 
-0.0054151 0.035031 -0.030077 0.012506 0.053609 0.030427 0.035195 0.024015 
-0.030406 0.061008 0.016123 0.050486 0.080409 0.070215 0.040128 0.038977 
-0.011005 0.096521 0.027303 0.08863 0.067913 0.063639 0.04654 0.062323 
0.045224 0.05624 0.043745 0.086328 0.065447 0.050979 0.036182 0.078765 
0.071859 -0.014293 0.041607 0.077121 0.076134 0.060186 0.044402 0.056733 
-0.02087 -0.028104 0.084684 0.10672 0.070873 0.047526 0.059693 0.013328 
-0.089595 -0.0091966 0.047855 0.05476 0.035195 0.054267 0.043745 -0.036489 
-0.049642 0.0227 0.026317 0.027139 0.017438 0.062652 0.02122 -0.02794 
0.10359 0.10491 0.056733 -0.0059084 -0.021363 0.035195 0.0019835 0.023851 
0.24992 0.2292 0.11987 -0.0014692 -0.037311 0.015794 0.0069159 0.067585 
0.35235 0.33673 0.21572 -0.00097594 -0.026789 0.021549 0.072024 0.13236 
0.34955 0.35038 0.19007 0.013492 -0.017911 0.026646 0.047197 0.12908 
0.12233 0.17692 0.079587 0.023686 -0.01676 0.0074092 -0.024158 0.018754 
-0.19761 -0.086964 -0.13382 -0.040435 -0.012649 -0.031886 -0.06444 -0.12018 
-0.45525 -0.3617 -0.32997 -0.095185 -0.031886 -0.029748 -0.081539 -0.17624 
-0.47613 -0.44621 -0.35874 -0.037476 0.019083 0.018425 0.015959 -0.11146 
-0.22376 -0.35611 -0.16884 0.064296 0.049006 0.052623 0.056898 0.03092 
0.0064227 -0.15273 0.037004 0.079587 0.069558 0.069722 0.070215 0.098166 
0.16262 0.064625 0.15061 0.079587 0.059528 0.048841 0.051636 0.14913 
0.25271 0.2121 0.19632 0.065118 0.026317 0.03388 0.034537 0.10425 
0.26751 0.24153 0.11526 0.050814 0.044567 -0.0098543 0.075312 0.079422 
0.15949 0.19714 0.098001 0.028125 0.046211 0.055911 0.0421 0.079258 
0.07038 0.14404 0.066105 0.079258 0.049828 0.045224 0.047855 0.1077 
-0.014622 0.13516 0.08567 0.044238 0.031249 0.029112 0.034537 0.036839 
0.026152 0.2343 0.10704 0.011684 0.01711 0.0072447 0.0065871 0.010862 
0.16985 0.32062 0.14141 0.026481 0.020891 -0.0021268 0.025659 0.030427 
0.20602 0.32884 0.14881 0.0034632 0.039799 0.022042 0.027961 0.047691 
0.1345 0.15094 0.042594 -0.022185 -0.011827 -0.0011404 -0.025802 0.007738 
-0.070523 -0.15848 -0.12675 -0.044052 0.0046141 -0.012485 -0.026296 -0.041915 
-0.21126 -0.30448 -0.16194 0.041278 0.032236 0.0227 -0.0055795 -0.071345 
-0.25779 -0.2231 -0.051122 0.10655 0.092247 0.049006 0.038483 -0.02235 
-0.14204 -0.060658 0.030263 0.099645 0.088301 0.055089 0.064296 0.0052718 
0.031907 0.088794 0.08567 0.056733 0.048841 0.035524 0.049992 0.061172 
0.1322 0.14141 0.052623 0.023686 0.0070803 0.024837 0.068242 0.085835 
0.13549 0.10326 0.032564 0.011684 0.0075736 0.0013258 0.036839 0.061501 
0.098166 0.036675 0.028454 -0.003771 0.016452 -0.01117 0.041278 0.041278 
0.03651 -0.0083746 0.019411 -0.014458 -0.001798 -0.0067304 0.014808 0.029934 
0.0041209 0.010204 0.019411 -0.026624 -0.013965 -0.008539 0.0082312 0.020562 
-0.0050863 0.071366 0.021713 0.034537 0.025988 -0.015116 0.024179 0.03388 
-0.0082102 0.10688 0.045882 0.013657 0.043251 -0.0021268 0.030427 0.038648 
0.00033937 0.082053 0.033222 0.030756 0.061501 0.01974 0.047033 0.047362 
0.039963 -0.02235 0.020398 0.049335 0.07597 0.030756 0.036675 0.039634 
0.01563 -0.056383 -0.029091 0.054103 0.073997 0.022535 0.024673 0.032729 
0.020233 -0.030899 0.004943 0.064132 0.082053 0.022535 0.038812 0.052294 
0.019411 0.0031344 0.031249 0.052952 0.05065 0.01415 0.052952 0.046211 
0.016288 0.047691 0.075805 0.06742 0.039799 0.024508 0.047033 0.020069 
0.045389 0.090274 0.067256 0.038319 0.040456 0.0088889 0.033058 0.025824 
0.062323 0.10195 0.047362 0.020891 0.054267 0.0090533 0.023522 0.021713 
0.048513 0.082217 0.038977 0.0042853 0.035031 0.0046141 0.019905 0.012835 
0.053609 0.072188 0.058213 0.014808 0.027796 0.00050378 0.030427 0.037168 
0.051143 0.059693 0.075148 0.016781 0.024344 0.023851 0.040621 0.027139 
0.050157 0.024508 0.053938 0.043251 0.029441 0.0041209 0.029934 0.050979 
0.051143 0.046868 0.033387 0.03799 0.03947 -0.010183 0.020398 0.025988 
0.055911 0.080573 0.064132 0.023686 0.03388 -0.0078813 0.013657 0.031742 
0.10589 0.10885 0.10606 0.034537 0.020891 0.0042853 0.015794 0.034537 
0.13532 0.14716 0.10556 0.049499 0.013657 0.0324 0.021878 0.055254 
0.13976 0.19501 0.12891 0.047197 0.021549 0.010533 0.027139 0.068078 
0.06331 0.1345 0.10392 0.010533 0.026317 0.0059294 0.027632 0.073175 
0.01415 -0.014787 0.019411 -0.018239 0.0024767 -0.0032777 0.031578 0.071037 
0.032564 -0.07825 -0.011827 0.0042853 -0.0064016 0.0011614 0.053938 0.055747 
0.065447 -0.028104 0.012013 0.020891 -0.010348 -0.019226 0.051801 -0.037311 
0.01826 0.097837 0.063968 0.023522 -0.013471 -0.045203 -0.017253 -0.031064 
-0.034516 0.069064 -0.013307 0.0324 0.0018191 -0.020541 -0.027118 -0.039284 
-0.11837 -0.068714 -0.10554 0.017767 0.010369 -0.0077169 0.00297 -0.058521 
-0.10686 -0.029748 -0.056383 0.034702 0.022206 0.067256 0.04506 -0.020377 
0.12825 0.20076 0.14667 0.079258 0.048184 0.069393 0.07449 0.079916 
0.26472 0.31601 0.26899 0.11905 0.047033 0.055089 0.062817 0.14256 
0.21194 0.21046 0.15341 0.074983 0.023193 0.0072447 0.025659 0.064625 
-0.12544 -0.09091 -0.08269 0.0011614 0.0036276 -0.03912 -0.018404 -0.021692 
-0.40987 -0.45821 -0.28048 -0.021034 0.021056 0.00083261 -0.0022913 -0.072167 
-0.39853 -0.50852 -0.22573 0.030592 0.032564 0.010697 0.033551 -0.01939 
-0.14582 -0.16572 0.03651 0.13319 0.086163 0.05065 0.086163 0.064461 
0.13384 0.20832 0.18267 0.11017 0.089123 0.054432 0.073504 0.11083 
0.24334 0.29661 0.15094 0.05065 0.016781 0.0013258 0.03536 0.10589 
0.24449 0.26718 0.10195 0.028125 -0.017582 0.015301 0.047197 0.087479 
0.20405 0.21309 0.066434 0.0014903 -0.041915 -0.00081153 0.033715 0.051472 
0.14996 0.15226 0.08567 -0.026953 -0.043559 -0.029584 -0.00081153 0.0034632 
0.057884 0.12579 0.060844 -0.079401 -0.056877 -0.033037 -0.0040998 0.0044497 
0.039634 0.12201 0.015959 -0.020377 -0.039449 0.00297 -0.0090322 -0.0060728 
0.033551 0.092904 -0.0040998 0.0095465 -0.019555 0.022864 0.020727 0.044731 
0.048019 0.047362 0.025659 0.023851 0.018589 0.038319 0.032564 0.032564 
0.05213 0.028947 0.044567 0.086328 0.064625 0.050814 0.025824 0.050157 
-0.0062372 -0.058028 -0.029584 0.049499 0.050814 0.02829 0.028125 0.028947 
-0.067399 -0.058356 -0.022021 0.043909 0.045224 0.056076 0.036839 0.025988 
-0.12527 -0.055068 -0.021856 0.029605 0.025988 0.022042 0.012999 -0.030242 
-0.10324 -0.0064016 0.0016547 0.032236 0.0072447 -0.0052507 -0.0004827 -0.028269 
-0.026296 0.01826 -0.0014692 0.01563 0.012506 -0.024816 0.010369 -0.022021 
0.0018191 0.0082312 -0.025474 0.01974 0.0072447 0.012506 0.016781 0.019247 
0.038319 -0.0096899 -0.0016336 0.036017 -0.0031133 0.035688 0.027632 0.016945 
0.054267 0.021713 0.032893 0.040456 0.018096 0.037168 0.057555 0.017767 
0.087972 0.031742 0.061008 0.02533 0.047855 0.028783 0.04654 0.01267 
0.087643 0.057884 0.0080668 0.036017 0.035195 0.020562 0.033222 0.039799 
0.063968 0.089123 0.031578 0.071202 0.05476 0.029769 0.041936 0.025988 
0.06331 0.057227 0.01415 0.037004 0.048348 0.040621 0.043909 0.028125 
0.044731 0.046046 0.014479 0.02533 0.05065 0.018425 0.057227 0.025495 
0.029769 0.0324 -0.00015387 0.017603 0.037826 0.017603 0.032564 0.029112 
0.0052718 0.051801 0.016781 0.048184 0.018425 0.01563 0.027796 0.049006 
-0.047505 0.05065 0.054596 0.023522 0.034702 0.0034632 0.01152 0.010697 
-0.060987 0.091589 0.099481 0.038319 0.035031 0.038648 0.031742 0.011191 
-0.011498 0.13582 0.12381 0.053609 0.046375 0.018425 0.054432 0.019083 
0.10655 0.16853 0.096686 0.03799 -0.015938 0.0016547 0.013328 0.050321 
0.1738 0.17511 0.092082 0.0042853 -0.012978 0.016452 0.0023123 0.042265 
0.13483 0.091589 0.025001 -0.025145 -0.021034 0.0079024 0.00017495 0.050486 
0.11411 0.1368 0.026481 -0.022843 -0.011334 -0.01117 -0.0047575 -0.028104 
0.10376 0.14733 0.014479 -0.074469 -0.042573 -0.0080457 0.013986 0.024179 
0.08715 0.12053 0.017274 -0.032708 -0.022021 0.0047785 0.012506 0.025495 
0.0021479 -0.027611 -0.057534 0.017274 0.033222 0.019083 -0.00015387 -0.021034 
-0.048656 -0.1062 -0.10308 0.022864 0.075641 0.06594 0.0072447 -0.055397 
-0.14204 -0.17016 -0.12231 0.043251 0.079094 0.021549 -0.023336 -0.049478 
-0.26963 -0.3081 -0.10998 0.10672 0.10047 0.038483 0.045718 -0.0068948 
-0.20732 -0.22573 0.02122 0.19665 0.12201 0.050157 0.097179 0.07038 
0.066269 -0.019719 0.11083 0.13713 0.10819 0.068078 0.077943 0.11987 
0.25337 0.12151 0.15703 0.046375 0.075312 0.057227 0.07038 0.13779 
0.25929 0.20355 0.10589 0.010369 0.00050378 0.022864 0.021056 0.098166 
0.13253 0.19024 0.080738 0.0092177 -0.013471 0.012177 0.018425 0.044402 
0.012999 0.14881 0.040292 -0.038791 -0.01528 -0.022185 0.0098754 -0.0032777 
0.012506 0.147 0.073175 -0.030735 0.017274 -0.011827 0.020727 0.00099702 
0.067256 0.14519 0.079422 -0.003771 -0.00031829 0.0060938 -0.0082102 0.029934 
0.071531 0.098494 0.055911 0.028454 0.011848 0.0054362 0.0047785 0.020727 
0.029769 0.08156 0.039799 0.013328 0.010204 0.0042853 0.016288 0.01152 
-0.012649 0.025166 0.026646 0.0037921 0.031085 -0.011663 0.0059294 0.011191 
-0.030735 -0.02498 0.024344 0.026317 0.036182 0.012999 0.0018191 0.034537 
-0.0138 -0.024652 0.0090533 0.015301 0.010369 0.016616 0.015959 0.044073 
-0.017417 0.0080668 0.013657 0.03947 0.022042 0.014808 0.033551 0.021713 
0.021549 0.02533 0.018096 0.037004 0.050814 0.02533 0.050979 0.0032988 
0.057391 0.0024767 0.020069 0.038977 0.046704 0.016452 0.01826 0.02533 
0.037826 -0.020212 0.00017495 0.038648 0.031907 0.027303 0.021713 0.023522 
0.010533 -0.010841 -0.0044286 0.033387 0.042265 0.025166 0.049664 0.034866 
-0.0073881 0.014808 0.016781 0.049828 0.045553 0.030427 0.03388 0.017767 
0.014972 0.0046141 0.039305 0.03536 0.049992 0.023193 0.027139 0.032564 
-0.00081153 0.013657 0.050486 0.030098 0.01267 0.021549 0.012506 0.038812 
-0.01676 0.026152 0.019247 -0.0013048 0.030756 0.041607 0.017438 0.045882 
-0.011498 0.019247 0.0052718 0.042758 0.032071 0.018096 0.017438 0.029605 
0.0019835 0.02122 0.013657 0.026317 0.047362 0.025659 0.040621 0.065776 
-0.0054151 0.053938 0.066598 0.025824 0.038977 0.028125 0.038648 0.064296 
0.026317 0.075641 0.064296 0.021713 0.0227 0.024015 0.021878 0.051801 
0.087479 0.080902 0.091753 0.029934 0.0039565 0.01711 0.019411 0.070708 
0.15867 0.19566 0.08978 0.011191 0.018754 0.015794 0.021713 0.037004 
0.22887 0.232 0.11839 0.032071 0.039963 0.00066819 0.047855 0.013328 
0.24449 0.183 0.10885 0.054596 0.020562 0.024179 0.037168 0.014479 
0.092247 0.023686 -0.0060728 0.09126 0.075148 0.051308 0.010533 0.055254 
-0.095514 -0.052273 -0.0070593 0.026646 0.061666 0.0592 0.023851 0.036675 
-0.14977 -0.12149 -0.050464 0.054432 0.033715 0.06742 0.053445 0.067091 
-0.12642 -0.13399 -0.044546 0.056076 0.042923 0.024837 0.015465 -0.006566 
0.063474 0.054596 0.00033937 0.044073 0.038648 0.019411 0.027468 0.02681 
0.33295 0.35794 0.14831 0.064954 0.037661 0.03651 -0.01528 0.089123 
0.35695 0.45527 0.16163 0.0786 0.064461 0.046704 0.026646 0.069229 
0.13154 0.087972 -0.030406 0.0044497 -0.003771 0.020233 0.016616 0.017438 
-0.22737 -0.32947 -0.14517 -0.037969 -0.0029489 0.029769 0.026974 0.012342 
-0.48517 -0.4735 -0.18298 -0.0052507 0.011848 0.0051074 0.034702 -0.059178 
-0.40922 -0.23362 -0.051615 0.029934 -0.0062372 0.02122 0.013821 -0.069208 
-0.043395 0.12661 0.069229 0.025495 -0.022514 0.020727 -0.017746 -0.030735 
0.23331 0.28724 0.14124 0.034702 0.018918 0.028947 0.02533 0.060022 
0.2583 0.21079 0.052294 0.031578 -0.006566 0.040128 0.067256 0.096686 
0.16574 0.082875 0.049992 0.040621 0.0093821 0.029769 0.049335 0.10113 
0.08715 0.086657 0.070051 0.035195 0.029769 0.048677 0.042265 0.075312 
0.081889 0.079094 0.095042 0.042265 0.021056 0.037826 0.0065871 0.030427 
0.10639 0.10622 0.079258 0.061337 0.026646 0.028454 0.01415 0.015137 
0.10836 0.12431 0.051965 0.025166 0.029934 0.037826 0.017603 -0.0090322 
0.079258 0.10376 0.034537 0.018425 0.033222 0.023522 0.018096 -0.017582 
0.06479 0.05624 0.022371 0.020891 -0.0032777 0.026152 0.01826 -0.0067304 
0.045224 0.033058 0.041936 0.037661 -0.0083746 0.030098 0.0075736 0.034866 
-0.021363 0.058213 0.0028056 0.025988 0.0021479 0.028947 0.0098754 0.041772 
-0.017746 0.052294 0.017767 0.023193 0.025166 0.027468 0.040621 0.046211 
0.020233 0.026974 0.017932 0.0085601 0.0083956 0.076956 0.060844 0.073504 
0.068407 0.018754 0.0421 0.021713 0.02533 0.050157 0.053938 0.061337 
0.10852 0.057062 0.060679 0.026974 0.043251 0.04095 0.037661 -0.006566 
0.12431 0.083862 0.047362 0.020891 0.030427 0.028619 0.0031344 -0.006566 
0.030263 0.043416 0.034702 0.065118 0.037004 0.011355 0.018754 -0.009361 
-0.088115 -0.037969 0.029276 0.027796 0.0013258 0.0051074 -0.0021268 -0.0004827 
-0.12346 -0.10423 0.0034632 -0.011992 -0.029584 -0.017582 -0.0039354 -0.017746 
-0.062302 -0.11771 -0.04471 -0.0067304 0.017603 -0.012485 -0.0054151 0.018096 
-0.046025 -0.10012 -0.075455 0.031578 0.049335 0.0031344 0.019411 0.022206 
-0.16786 -0.13185 -0.11146 -0.0027845 0.044073 0.030427 0.033715 -0.0016336 
-0.15059 -0.092719 -0.052602 0.027303 0.045718 0.046375 0.036839 -0.017088 
0.0037921 0.037168 0.070051 0.11313 0.084026 0.074819 0.061337 0.058213 
0.15982 0.17084 0.18761 0.14864 0.10376 0.076627 0.063145 0.09685 
0.21852 0.2366 0.22148 0.0689 0.044073 0.037826 0.031249 0.10392 
0.18892 0.17429 0.11888 -0.012485 0.0031344 0.016452 0.033222 0.056569 
0.18991 0.098823 0.0087245 -0.012978 -0.028597 0.019411 0.034209 0.059693 
0.17412 0.096193 -0.014458 -0.034516 -0.023994 -0.0027845 0.02122 0.060844 
0.079587 0.084026 0.0087245 -0.021856 -0.0013048 -0.022185 -0.024487 -0.023994 
0.016288 -0.013471 -0.037311 0.0013258 0.013657 0.017274 -0.039613 -0.031886 
-0.16046 -0.1552 -0.031228 0.065118 0.050814 0.051636 0.033551 -0.036325 
-0.24234 -0.16128 -0.086307 0.082382 0.094548 0.068242 0.080573 -0.035832 
-0.22935 -0.12905 -0.012156 0.077121 0.076299 0.057884 0.049992 -0.021528 
-0.055068 0.010369 0.038977 0.07038 0.054432 0.041936 0.042594 0.053609 
0.14617 0.14782 0.10113 0.038977 0.023851 0.02533 0.053281 0.065612 
0.24269 0.22345 0.10524 -0.0070593 0.0070803 0.034537 0.065612 0.083368 
0.20208 0.19188 0.077449 -0.010841 0.017603 0.0028056 0.043745 0.062817 
0.12825 0.15735 0.063474 0.022864 -0.0090322 -0.014129 0.039963 0.057884 
-0.0090322 0.10704 0.062817 1.0539e-005 0.010697 -0.010676 0.0042853 0.025001 
-0.010512 0.077285 0.09422 0.020398 0.0092177 -0.0040998 0.0037921 0.025659 
0.047855 0.11083 0.086328 0.032071 0.026152 -0.011334 0.032729 0.044402 
0.082546 0.1174 0.049335 0.0421 0.01711 0.022371 0.023522 0.0324 
0.056569 0.025495 -0.0080457 0.0056006 0.02681 0.0014903 0.054432 0.040785 
0.0060938 -0.055397 -0.050958 -0.0016336 0.022206 -0.0072237 0.023028 0.017603 
-0.013143 -0.031557 -0.016102 0.050321 0.061501 0.028619 0.023028 0.031249 
0.05065 0.038319 0.046704 0.076134 0.062488 0.058213 0.048841 0.040128 
0.08978 0.13417 0.047197 0.071695 0.062159 0.030592 0.038483 0.05772 
0.12118 0.13713 0.062159 0.0421 0.027139 0.03092 0.047362 0.075312 
0.086163 0.10852 0.11477 0.057391 0.039963 0.029934 0.060844 0.11066 
0.12365 0.15818 0.15242 0.036017 0.01152 0.0324 0.053445 0.091096 
0.12908 0.26373 0.18909 0.016288 -0.019061 0.0095465 0.06183 0.091589 
0.07597 0.24614 0.10918 -0.014951 -0.0034422 -0.0032777 0.028454 0.034209 
-0.059507 0.00297 -0.090088 -0.044052 -0.0075525 -0.030406 -0.032215 -0.0073881 
-0.12577 -0.15388 -0.20271 0.0082312 0.044567 -0.030899 -0.050464 -0.048985 
-0.089759 -0.13662 -0.097158 0.064461 0.060844 0.0046141 -0.030077 -0.038956 
-0.11755 -0.011827 -0.001798 0.1179 0.071531 0.035688 0.020069 -0.060329 
-0.27045 -0.071181 -0.037969 0.081231 0.0786 0.032893 0.024015 -0.082196 
-0.30711 -0.22491 -0.07562 0.042923 0.09833 0.032236 0.043909 -0.072825 
-0.11738 -0.20304 -0.059836 0.068736 0.077449 0.060515 0.06479 0.042265 
0.08304 -0.043395 0.033387 0.12809 0.059528 0.097344 0.090931 0.097015 
0.1909 0.08156 0.086985 0.086657 0.041607 0.076627 0.10606 0.14749 
0.18728 0.12858 0.14519 0.035524 0.018918 0.010369 0.065776 0.10113 
0.14552 0.12694 0.09126 0.013821 -0.020377 -0.022514 0.012999 0.064296 
0.15505 0.11329 0.056898 -0.025474 -0.056877 -0.047341 -0.014129 0.037004 
0.10392 0.13664 0.049992 -0.047341 -0.044217 -0.03501 0.0041209 0.020891 
0.069393 0.1664 0.057227 -0.044874 -0.024323 -0.039613 -0.011498 0.0034632 
0.036182 0.12398 0.044896 0.014315 -0.00015387 -0.019061 -0.0091966 0.0074092 
0.038648 0.11642 -0.021034 0.023522 0.00297 0.00017495 -0.01232 0.012342 
0.021713 0.07301 0.0023123 0.048348 0.023028 0.037497 -0.0057439 0.032564 
0.055747 0.066105 0.016288 0.058706 0.045389 0.043909 0.035195 0.051801 
-0.0068948 0.041607 0.10178 0.10672 0.060515 0.026646 0.028125 0.0013258 
0.0092177 0.017767 0.019083 0.047526 0.046046 0.028619 0.029605 0.020891 
0.042429 0.022042 -0.018404 0.057227 0.053609 0.015137 0.01711 0.023686 
0.053445 0.027139 0.021549 0.047691 0.023028 0.033551 0.022042 0.02829 
0.044238 0.0083956 0.03388 0.035031 0.042923 0.023357 0.038648 0.028619 
0.034866 0.038977 0.038648 0.02829 0.044896 0.018425 0.034373 0.046704 
0.021384 0.045553 0.0227 0.037497 0.027139 0.011848 0.0421 0.041936 
0.061337 0.062817 0.035031 0.047362 0.020398 0.027468 0.047526 0.03651 
0.11428 0.1225 0.057062 0.0324 0.026481 0.029276 0.010369 0.026646 
0.16755 0.14354 0.09274 0.0095465 0.030263 0.011026 0.00297 0.023193 
0.085177 0.086163 0.034209 0.0014903 -0.0083746 1.0539e-005 -0.0091966 -0.0039354 
-0.069536 0.016123 0.0060938 0.00066819 -0.0088678 -0.0096899 -0.0059084 0.0054362 
-0.13843 -0.067728 -0.032543 0.0046141 0.016452 0.009711 0.0062583 -0.0004827 
-0.029091 -0.04323 0.012013 0.028783 0.020562 0.055582 0.042594 0.067913 
0.12973 -0.017088 0.043745 0.064461 0.013821 0.048841 0.07301 0.088958 
0.2366 0.10556 0.092247 -0.0024557 -0.0078813 0.0085601 0.044238 0.086328 
0.24055 0.27507 0.12299 -0.062796 -0.044052 -0.02794 -0.0014692 0.03947 
-0.018239 0.24038 0.066763 -0.051287 -0.00031829 -0.015116 -0.01676 -0.033037 
-0.39064 -0.083347 -0.14171 -0.032872 0.027796 -0.0054151 -0.053753 -0.13267 
-0.44802 -0.35397 -0.30268 -0.018075 0.046868 0.0065871 -0.011498 -0.12083 
-0.17871 -0.30876 -0.10801 0.11625 0.10589 0.069722 0.043416 -0.051615 
0.13384 -0.069043 0.11839 0.23594 0.15505 0.087643 0.067913 0.056076 
0.34068 0.16673 0.2463 0.2218 0.16442 0.11642 0.065447 0.098659 
0.25288 0.21309 0.19451 0.12414 0.084519 0.077778 0.060515 0.082053 
-0.011334 0.08419 0.040621 -0.022843 0.013492 0.032893 0.076956 0.09126 
-0.13695 -0.069372 -0.054082 -0.065097 -0.045696 0.004943 0.057227 0.053938 
-0.0091966 0.021878 0.037661 -0.046847 -0.026131 -0.0080457 -0.0019624 0.052952 
0.18202 0.16623 0.12644 -0.019226 -0.038298 0.0052718 -0.014622 0.03092 
0.26422 0.21769 0.083204 -0.0064016 -0.025145 -0.0026201 -0.010676 0.034537 
0.18629 0.17725 0.046211 -0.0059084 -0.018733 -0.015609 0.005765 0.017767 
0.072681 0.12546 0.03536 -0.0098543 -0.0039354 -0.0013048 0.025495 0.037497 
-0.00031829 0.11346 0.038977 0.0023123 -0.014293 0.01004 0.025824 0.01152 
0.0067515 0.076134 0.020233 0.024015 0.020727 0.04654 0.010204 0.032729 
-0.011498 0.040785 0.017603 0.037168 0.0421 0.030098 0.0090533 0.040128 
-0.0029489 0.020562 0.02122 0.024015 0.05476 0.010533 0.024673 0.028947 
-0.028926 0.026152 0.020562 0.04506 0.054267 0.035853 0.020398 0.01267 
-0.028597 0.0044497 0.024837 0.054596 0.027796 0.032564 0.017932 0.0090533 
-0.020377 -0.027775 0.042923 0.013328 0.049992 0.057062 0.042758 0.0065871 
-0.047341 0.010862 0.03947 0.029441 0.047526 0.027632 0.020891 0.025824 
0.013657 0.019083 0.062981 0.025495 0.10376 0.028947 0.058049 0.0227 
-0.0027845 0.032564 0.073339 0.064461 0.036182 0.023357 0.030098 0.028125 
0.011026 -0.0026201 0.043745 0.036017 0.038648 0.041772 0.027139 0.037332 
0.040621 0.00083261 0.020233 0.016781 0.011848 0.022864 -0.0098543 0.020562 
0.028783 0.0054362 0.024344 0.034702 0.011848 0.0039565 -0.0024557 0.028125 
-0.0096899 0.056404 0.05624 -0.0016336 -0.027611 1.0539e-005 0.01563 -0.025802 
0.066598 0.22131 0.074161 0.029276 0.010862 0.021384 0.017767 0.047691 
0.12332 0.29941 0.098166 0.067585 0.0421 0.067585 0.054432 0.050486 
0.070215 0.18054 0.035524 0.07597 0.079916 0.045389 0.043909 0.040621 
0.028454 -0.032872 -0.020706 0.04506 0.075312 0.00066819 0.044731 0.024344 
-0.032215 -0.20008 -0.013471 0.057391 0.05476 0.023851 0.056733 0.053609 
-0.03057 -0.18594 0.0098754 0.095371 0.063968 0.031742 0.049335 0.067091 
0.01974 -0.078415 0.039141 0.083697 0.059364 0.040456 0.026481 0.054596 
0.018589 0.023193 0.044896 0.028125 0.027303 0.018096 -0.017582 0.029605 
-0.0406 -0.0083746 -0.036983 -0.039942 -0.023172 -0.014951 -0.0090322 0.007738 
-0.058521 -0.038956 -0.081868 -0.015116 -0.012156 -0.004593 0.016945 0.0044497 
-0.037311 0.021056 -0.014458 -0.031064 0.010533 0.00033937 0.0064227 0.027139 
0.043087 0.087972 0.054432 0.0065871 0.023686 0.02681 0.016452 0.029441 
0.1174 0.16689 0.10655 0.040785 0.023193 0.03092 0.063145 0.061337 
0.14617 0.16821 0.11198 0.055418 0.033058 0.041936 0.057884 0.043416 
0.12973 0.14996 0.090274 0.041443 0.024179 0.019576 0.047691 0.036839 
0.090603 0.15489 0.086657 0.0227 0.031578 0.017932 0.031085 0.025659 
0.084848 0.12891 0.067913 0.024015 0.013492 0.028947 0.011026 0.021713 
0.09981 0.095864 0.058049 0.012506 0.0052718 0.025495 0.0019835 0.028454 
0.076627 0.062817 0.037826 0.031578 0.034702 0.030098 0.020398 0.02533 
0.055254 0.032236 0.017603 0.023851 0.035195 0.016616 0.032236 0.029934 
0.048513 -0.0070593 0.0019835 0.012013 0.019411 0.035031 0.029441 0.015301 
0.032071 -0.021034 0.020727 0.0060938 0.0026412 0.029934 0.025824 0.033222 
0.017767 0.0047785 0.048019 0.014972 0.015794 0.014643 0.020069 0.019083 
0.010369 0.0069159 -0.009361 0.030756 0.012835 0.0067515 0.044896 0.042429 
0.033222 0.027796 0.027303 0.016123 0.012342 0.0079024 0.046375 0.031907 
0.097508 0.13631 0.069229 0.00297 0.0018191 0.013164 0.022042 0.060022 
0.19714 0.27606 0.14617 0.023686 0.015959 0.01711 0.022864 0.06594 
0.23578 0.26209 0.11806 0.047197 0.034702 0.030756 0.039799 0.10672 
0.14568 0.062488 0.0046141 0.015794 0.073339 0.031578 0.046211 0.077943 
-0.029913 -0.21323 -0.12396 0.011355 0.060515 0.061666 0.051801 0.054925 
-0.21093 -0.33342 -0.14813 0.05213 0.062323 0.049499 0.034702 -0.036325 
-0.28623 -0.24595 -0.067399 0.082053 0.041278 0.0592 0.016288 -0.090088 
-0.2448 -0.082196 -0.046354 0.056898 0.05065 0.01974 -0.0031133 -0.11031 
-0.068221 0.015959 -0.010676 0.05065 0.042594 0.034537 0.021878 -0.024816 
0.022206 0.053116 0.02122 0.039799 0.033058 0.040128 0.026481 0.048019 
0.08567 0.11017 0.093069 0.022371 0.016945 0.028947 0.024015 0.016123 
0.070708 0.15735 0.11329 0.00050378 0.01415 0.025001 0.023522 0.028619 
0.10573 0.19057 0.10622 0.0082312 0.012342 0.019576 0.034209 0.047526 
0.10474 0.13483 0.083862 0.023851 0.0047785 0.0041209 0.074326 0.060679 
0.057391 0.043909 0.025824 -0.0095255 0.013164 0.029112 0.043745 0.034209 
0.028125 -0.019061 -0.023501 -0.011498 0.014315 0.017932 0.041772 0.0421 
0.038319 0.0011614 -0.019884 0.011684 0.02533 -0.004593 0.025988 0.038977 
0.06479 0.064625 0.022864 0.030427 0.011848 -0.0080457 0.0090533 0.061501 
0.08419 0.098988 0.039799 -0.0004827 -0.0090322 0.0227 0.029934 0.03799 
0.10967 0.1026 0.04654 -0.004593 0.013657 0.026152 0.033058 0.047691 
0.11559 0.036346 0.033551 0.047691 0.025988 0.041607 0.03799 0.052459 
0.10491 0.047033 0.044896 0.040128 0.026974 0.0021479 0.032071 0.04654 
0.031742 0.11872 0.062488 0.036017 0.034866 0.037332 0.050157 0.033387 
-0.047341 0.079094 0.028947 0.009711 0.016616 0.034373 0.050486 0.03388 
-0.11245 0.055747 0.0024767 0.043909 0.041772 0.038155 0.036182 0.018425 
-0.068714 0.0075736 0.025659 0.02829 0.032893 0.02533 0.025166 0.041772 
0.073504 0.092904 0.14733 0.06183 0.043251 0.016616 0.038483 0.084684 
0.22164 0.24992 0.22394 0.056076 0.010204 0.021056 0.027796 0.10491 
0.18876 0.26653 0.20208 -0.0019624 -0.0083746 0.018425 0.013164 0.047526 
-0.089924 0.093398 -0.059014 -0.074798 -0.020212 -0.034188 -0.050629 -0.071181 
-0.37732 -0.15964 -0.2328 -0.061809 0.012177 -0.036325 -0.02794 -0.10637 
-0.35463 -0.3206 -0.2619 0.017932 0.054596 0.01563 0.026317 -0.030242 
-0.068386 -0.23083 -0.11639 0.065447 0.089452 0.045882 0.061995 0.051472 
0.19205 -0.07562 0.019083 0.10655 0.083697 0.061666 0.087643 0.11132 
0.3221 0.088301 0.18826 0.11559 0.047691 0.041772 0.06331 0.1054 
0.23134 0.14913 0.15703 0.10244 0.042429 -0.0068948 0.032564 0.052787 
0.025495 0.059857 0.024344 -0.0050863 0.0052718 -0.012978 0.010204 0.005765 
-0.21603 -0.03912 -0.070194 -0.024816 0.024179 0.0059294 0.03092 -0.043888 
-0.3132 -0.049642 -0.046354 0.036675 0.049828 0.063639 0.072517 -0.032708 
-0.091568 0.025988 0.084026 0.088958 0.090109 0.076134 0.087479 -0.00097594 
0.14404 0.12908 0.13203 0.11378 0.085999 0.049335 0.038648 0.0421 
0.19829 0.21917 0.15949 0.092904 0.065447 0.014972 0.00017495 0.056569 
0.15127 0.23644 0.10951 0.051636 0.031414 0.014479 -0.011334 0.081067 
0.14568 0.21013 0.081067 -0.014458 -0.0096899 -0.0052507 0.030427 0.097837 
0.171 0.16426 0.058871 -0.044381 -0.025309 -0.035338 0.019083 0.11411 
0.19895 0.11872 0.050814 -0.030899 -0.014129 -0.0052507 0.030592 0.087479 
0.13647 0.068736 0.013657 -0.0049219 0.0079024 -0.011005 0.0067515 0.057062 
-0.012485 -0.061316 -0.031557 -0.006566 0.0014903 0.010533 0.007738 -0.0064016 
-0.26798 -0.21093 -0.12922 -0.026789 -0.012485 -0.017911 -0.010676 -0.038627 
-0.32602 -0.22573 -0.11426 -0.0034422 0.0082312 0.0046141 0.0018191 -0.049971 
-0.1986 -0.13777 -0.039613 0.025495 0.029441 0.038977 0.013164 -0.0067304 
-0.086964 -0.044546 -0.016431 0.046375 0.031249 0.035853 0.021713 0.020562 
0.0065871 0.033058 0.059035 0.076463 0.042594 0.071531 0.051965 0.02829 
0.11099 0.069558 0.10737 0.1202 0.081395 0.056898 0.062817 0.026974 
0.18037 0.13187 0.15456 0.11214 0.14239 0.038977 0.050979 0.00050378 
0.20142 0.19451 0.098001 0.062323 0.069558 0.028947 0.031249 0.020891 
0.15193 0.15851 0.051308 0.019247 0.032729 0.011191 0.034537 0.049335 
0.12414 0.093069 0.0026412 0.027961 0.019905 0.018096 0.023193 0.093069 
0.087314 0.031414 0.025166 0.019576 0.026974 0.00017495 0.040456 0.082711 
0.059693 0.090109 0.10458 0.036346 0.027796 -0.0036066 0.027303 0.10589 
0.13762 0.16722 0.14371 0.056404 0.0085601 0.0093821 0.024344 0.12102 
0.22148 0.22822 0.15078 0.022535 -0.004593 0.020891 0.011026 0.11214 
0.23348 0.22509 0.11707 0.0028056 0.0021479 0.011191 0.0021479 0.06479 
0.090109 0.19254 0.069229 0.0064227 0.0065871 0.0090533 0.020069 0.0051074 
-0.12807 0.097179 0.013986 0.015137 -0.010512 -0.0014692 -0.00097594 -0.098144 
-0.21192 -0.12807 -0.12363 -0.075127 -0.03616 -0.013636 -0.02498 -0.12905 
-0.16884 -0.27357 -0.18216 -0.055726 -0.023336 0.010204 -0.019884 -0.095349 
-0.1062 -0.22409 -0.10028 0.055911 0.067585 0.046046 0.014643 -0.013307 
-0.060987 -0.11163 0.009711 0.14305 0.13713 0.11115 0.048677 0.0011614 
-0.069372 -0.13497 -0.04323 0.10392 0.091753 0.06035 0.053774 0.034537 
-0.025967 -0.045203 0.014479 0.079587 0.068571 0.04917 0.046046 0.064132 
0.080244 0.11395 0.098001 0.09685 0.05213 0.036182 0.044238 0.075476 
0.11839 0.24384 0.16985 0.032071 0.045553 0.024179 0.027468 0.05476 
0.11017 0.20816 0.1151 -0.01676 -0.024158 -0.0075525 0.020233 0.017274 
0.1003 0.057884 0.019247 -0.054575 -0.059014 -0.031721 -0.023007 -0.012649 
0.1003 0.018918 0.011848 -0.033201 -0.046683 -0.020377 -0.004593 0.0093821 
0.089945 0.05065 0.063145 -0.0055795 0.012177 0.0054362 0.026974 0.051472 
0.065118 0.10228 0.070544 0.015137 0.0032988 0.014315 0.029276 0.039799 
0.12825 0.14617 0.049499 0.05213 0.04358 0.047526 0.05065 0.072846 
0.17051 0.14979 0.051965 0.049664 0.03799 0.026974 0.041114 0.062652 
0.13828 0.11921 0.059035 0.027632 0.047362 0.033058 0.021713 0.051636 
0.079916 0.091753 0.058542 0.026974 -0.012485 0.030263 0.009711 0.020562 
0.045553 0.081231 0.032729 0.035688 0.00033937 -0.00015387 0.017603 0.037004 
0.041114 0.029276 0.02681 0.01152 0.013821 -0.00015387 0.043416 0.03947 
0.079587 0.028947 0.03536 0.0095465 0.016616 -0.0013048 0.025824 0.040292 
0.080902 0.088136 0.051143 0.025988 0.011848 0.028454 0.0021479 0.00017495 
0.11313 0.12398 0.065118 0.031907 1.0539e-005 0.032564 0.023851 0.034044 
0.082875 0.065612 -0.013307 0.014479 -0.020706 0.029934 0.040785 0.035853 
0.0062583 -0.069701 -0.048656 0.010369 0.029276 0.029605 0.044567 0.020233 
-0.073811 -0.15651 -0.015938 0.024179 0.00066819 -0.017911 0.016452 -0.047834 
-0.12511 -0.025309 0.057391 0.030098 -0.014293 0.012177 -0.0083746 -0.030077 
-0.017253 0.071695 0.10754 0.026974 -0.010019 0.034044 -0.0027845 0.005765 
-0.022679 0.094877 0.072024 0.024673 0.0037921 0.027468 0.017274 0.0064227 
-0.057205 0.11526 0.054596 0.026646 0.017932 -0.0098543 -0.0044286 -0.052437 
-0.068057 0.11411 0.069229 -0.0078813 0.011191 -0.02646 -0.016595 -0.021363 
0.043416 0.16459 0.065283 0.033551 0.025495 0.020069 0.035195 0.032071 
0.11017 0.091096 -0.00097594 0.05772 0.065447 0.046704 0.064625 0.067749 
0.16525 0.017438 -0.019226 0.084684 0.09833 0.065776 0.10113 0.11033 
0.2103 0.031085 0.02681 0.092904 0.084519 0.071531 0.10639 0.11362 
0.21819 0.067091 0.078107 0.071531 0.058377 0.058871 0.04358 0.08567 
0.060844 -0.009361 -0.025638 0.035195 -0.006566 0.016616 0.0047785 0.0026412 
-0.25319 -0.20551 -0.16407 -0.048985 0.0067515 -0.026953 -0.027775 -0.035174 
-0.41464 -0.28722 -0.1478 -0.023994 0.0046141 -0.023172 0.031414 -0.049807 
-0.25335 -0.0965 0.046868 0.024015 -0.00015387 0.0074092 0.045553 0.0059294 
0.082546 0.12875 0.16706 0.044402 -0.021856 0.015959 0.016288 0.03092 
0.22723 0.17265 0.14864 0.00050378 -0.0021268 0.030263 -0.0036066 0.064625 
0.071202 0.12102 0.064296 0.0083956 0.046375 0.051965 0.044073 0.040292 
-0.074469 0.17495 0.060186 0.064132 0.060679 0.059035 0.058049 0.0065871 
-0.01232 0.31322 0.10129 0.090931 0.08156 0.049006 0.030263 -0.01232 
0.06742 0.26077 0.060186 0.076463 0.082546 0.046211 0.021713 0.0083956 
0.061008 -0.055397 -0.045368 0.051472 0.075641 0.033551 0.021384 0.044402 
0.031085 -0.27144 -0.065919 0.079751 0.043909 0.032893 0.017767 0.088136 
0.06035 -0.16309 0.037004 0.045224 0.027303 0.022371 0.041607 0.071531 
0.09981 0.033387 0.065776 0.0018191 -0.016924 -0.0054151 0.031249 0.047197 
0.076463 0.13319 0.044896 -0.0098543 -0.008539 0.014972 0.0074092 0.033715 
0.034209 0.13943 0.06183 -0.017088 -0.024158 1.0539e-005 0.0052718 0.020398 
0.011355 0.12661 0.0786 -0.021363 -0.012814 0.0019835 0.0087245 0.018918 
0.0082312 0.13203 0.073997 0.0026412 0.018754 0.022042 0.040785 0.0227 
0.019247 0.092082 -0.028104 0.023357 0.050321 0.0324 0.059693 0.020398 
0.0016547 -0.03205 -0.094363 0.020233 0.068571 0.044238 0.031907 0.0092177 
-0.049314 -0.054904 -0.10406 -0.0077169 0.040785 0.014479 -0.00064712 -0.0078813 
-0.10176 -0.02087 -0.010019 0.0080668 0.031085 0.0090533 -0.0088678 -0.030735 
-0.045696 -0.030406 -0.0055795 0.036346 0.03947 0.018425 0.038483 0.013328 
0.057391 -0.06707 -0.0059084 0.05772 0.08978 0.054432 0.063639 0.066763 
0.080573 -0.077757 0.028454 0.12135 0.082217 0.074983 0.069558 0.11362 
0.04654 -0.035503 0.08978 0.09833 0.057555 0.050979 0.033058 0.079916 
-0.021363 0.04506 0.092411 0.052952 0.040292 0.023522 0.029276 0.059035 
-0.042573 0.11033 0.071366 0.015137 0.025824 0.0070803 0.024837 0.018425 
0.00017495 0.1026 0.052787 -0.0027845 -0.0080457 0.02533 0.023851 0.028454 
0.077778 0.11888 0.058706 0.042758 0.03651 0.019576 0.010533 0.016616 
0.14387 0.12743 0.073832 0.010533 0.0041209 0.018589 -0.0034422 0.011848 
0.090603 0.13976 0.016452 -0.0098543 0.043745 -0.0031133 -0.026789 -0.024816 
0.027632 0.058542 -0.033859 0.0042853 -0.0016336 -0.0013048 0.00066819 -0.001798 
-0.037969 -0.059672 -0.071674 0.024015 0.03947 0.013821 0.017932 -0.017417 
-0.10752 -0.099131 -0.008539 0.059035 0.058871 0.049006 0.049828 0.017438 
0.011191 0.021384 0.1151 0.069393 0.063474 0.06183 0.044073 0.068736 
0.15867 0.10408 0.095699 0.082546 0.038977 0.042594 0.053281 0.10326 
0.25337 0.11231 0.061501 0.029112 0.011026 0.02681 0.046375 0.098166 
0.17643 0.11691 0.049499 0.0090533 0.00297 0.0095465 0.020891 0.069886 
0.0032988 0.10014 0.027139 -0.022514 -0.008539 -0.014458 -0.009361 0.027796 
-0.10801 0.062159 -0.013636 -0.003771 0.042758 -0.0055795 0.020398 -0.018568 
-0.072332 0.011191 -0.014458 -0.037969 -0.012978 -0.027611 0.0064227 -0.0049219 
0.12792 0.045224 0.043745 -0.03912 -0.012156 -0.012814 0.0092177 -0.0077169 
0.26948 0.15982 0.15801 0.032071 0.012013 0.019083 0.031249 0.062488 
0.21638 0.19764 0.14305 0.026646 0.044896 0.0019835 0.012177 0.034866 
0.045718 0.10672 -0.0095255 0.0059294 0.046375 -0.0080457 -0.013471 -0.0042642 
-0.081539 -0.035667 -0.081539 0.031907 0.071859 0.019905 -0.0049219 -0.0077169 
-0.1039 -0.11031 -0.039613 0.13072 0.12283 0.077285 0.070708 0.04654 
-0.109 -0.13908 0.021056 0.12628 0.13286 0.097837 0.091753 0.069064 
-0.12083 -0.10719 -0.0036066 0.077943 0.08304 0.061008 0.083204 0.05213 
-0.0021268 -0.01676 0.051636 -0.0024557 -0.004593 0.0056006 0.029605 0.03799 
0.18399 0.10425 0.097837 -0.017911 -0.0503 -0.024816 0.01267 0.051308 
0.22624 0.2029 0.12266 -0.043559 -0.039613 -0.014293 0.014315 0.035688 
0.097179 0.17511 0.10113 0.0054362 -0.0019624 -0.0026201 -0.0091966 0.023357 
-0.021856 0.11839 -0.011663 0.017274 0.016945 0.0082312 0.0041209 -0.0031133 
-0.027282 0.025824 -0.046847 0.023193 0.069722 0.026317 0.024179 0.013986 
0.0689 0.010697 0.022371 0.039141 0.062981 0.041772 0.049664 0.039305 
0.070873 0.038648 0.094055 0.043087 0.031249 0.050321 0.072517 0.045718 
0.051472 0.074983 0.053116 0.039634 -0.0016336 0.019905 0.031249 0.038155 
0.044073 0.0689 0.055911 0.0044497 -0.008539 0.01152 0.022535 0.027796 
-0.0027845 0.036346 0.0324 -0.009361 0.010204 -0.01528 0.010204 0.012835 
-0.047012 -0.022514 0.0028056 -0.0068948 0.016123 0.0056006 0.031578 0.0060938 
-0.028597 -0.054904 -0.0049219 0.020233 0.047526 0.017767 0.025495 0.028619 
-0.018733 0.033222 0.024344 0.058706 0.050979 0.02829 0.024673 0.042265 
-0.0019624 0.064296 0.068736 0.067585 0.065283 0.021384 0.036182 0.050157 
-0.016266 0.0786 0.063639 0.071202 0.045553 0.021384 0.023193 0.020891 
-0.072167 0.041443 0.062159 0.064625 0.060679 0.022206 0.019905 0.037004 
-0.076935 0.032071 0.012342 0.0083956 0.022042 0.028783 0.033387 0.0037921 
0.048513 0.063474 0.00050378 0.0023123 -0.027282 -0.021692 0.0065871 0.036346 
0.11625 0.0421 -0.0072237 0.029441 0.016616 0.013821 0.026152 0.027961 
0.18317 0.10885 0.052787 -0.0004827 0.053281 0.0014903 0.041114 0.051472 
0.19468 0.14798 0.075476 0.0070803 0.0046141 0.030756 0.033551 0.049335 
0.19895 0.20651 0.11543 0.0046141 0.016452 0.029441 0.022371 0.056733 
0.11411 0.15637 0.073997 0.00083261 0.0054362 0.00099702 0.0069159 0.0098754 
0.0042853 -0.020212 -0.030899 -0.048492 0.021878 -0.01528 -0.0088678 -0.023172 
-0.13826 -0.1746 -0.121 -0.02087 0.017767 -0.013471 -0.012814 -0.033859 
-0.29133 -0.25417 -0.1353 0.049992 0.034209 0.020891 0.020233 -0.004593 
-0.25253 -0.17558 -0.014458 0.083533 0.063474 0.042429 0.062488 0.043416 
-0.058521 0.057227 0.13368 0.12743 0.086821 0.080244 0.088301 0.074161 
0.12595 0.19303 0.19747 0.10392 0.081889 0.037497 0.072353 0.074983 
0.2103 0.1613 0.11576 0.09685 0.035524 0.049499 0.049828 0.058871 
0.13105 0.010862 -0.0073881 0.048019 0.025988 0.04506 0.069886 0.056404 
-0.0040998 -0.082032 -0.053917 0.011684 0.029441 0.021713 0.037826 0.016781 
-0.03501 -0.027447 0.0019835 -0.00081153 0.025824 -0.0055795 0.017767 -0.008539 
0.033551 0.085341 0.029441 -0.004593 -0.018239 -0.016431 0.0018191 -0.00064712 
0.088958 0.10408 0.017767 -0.010348 -0.0080457 0.0079024 0.0051074 0.034537 
0.086985 0.10869 0.044731 -0.0052507 -0.022843 0.0052718 0.035031 0.023851 
0.093398 0.12349 0.064461 0.025001 -0.0011404 0.0019835 0.042758 0.039634 
0.11806 0.1368 0.09422 -0.0070593 0.031742 0.012999 0.025166 0.032071 
0.10244 0.1105 0.044567 0.0075736 0.01152 0.0092177 0.017274 0.045718 
0.077778 0.065118 0.01267 0.010204 0.016781 0.025001 0.018096 0.027796 
0.0072447 0.0088889 0.030263 0.047691 0.036839 0.011848 0.033715 0.016452 
-0.032543 -0.0059084 0.041278 0.042594 0.039963 0.0039565 0.011026 -0.030077 
0.013821 0.019905 0.05772 0.029112 0.0070803 0.013986 -0.0019624 0.017274 
0.10672 0.1008 0.087808 0.072846 0.0070803 0.035853 0.031249 0.020069 
0.18498 0.18974 0.13549 0.063803 0.017767 0.028783 0.025824 0.076134 
0.20865 0.23052 0.15867 0.023686 -0.0011404 0.025988 0.037661 0.079751 
0.19599 0.21901 0.13631 -0.023665 -0.041093 -0.0078813 0.0088889 0.034209 
0.1151 0.17676 0.038483 -0.0098543 -0.065426 -0.014458 -0.0027845 0.010862 
0.0013258 0.035031 -0.10127 -0.036489 -0.0031133 -0.0044286 0.012177 0.0016547 
-0.16901 -0.20962 -0.21636 -0.025638 0.062488 0.027139 0.021878 -0.013471 
-0.3081 -0.31484 -0.15651 0.052294 0.099481 0.040292 0.044567 -0.072332 
-0.24053 -0.19087 0.012835 0.16163 0.11477 0.052787 0.035195 -0.056712 
-0.049478 -0.050629 0.079587 0.13664 0.10688 0.0689 0.024344 0.010862 
0.079258 0.016781 0.076792 0.10326 0.069886 0.062652 0.041114 0.062981 
0.070544 0.020891 0.048841 0.082053 0.06183 0.044731 0.033387 0.034537 
0.013328 -0.016431 0.020233 -0.017253 -0.0036066 0.0037921 0.019083 0.018754 
-0.0049219 0.034209 -0.027775 -0.010183 -0.022514 -0.06296 0.0087245 -0.009361 
0.08419 0.058049 0.0013258 -0.032379 -0.041422 -0.019061 -0.00081153 0.058377 
0.13154 0.095206 0.038648 -0.012156 -0.054575 0.047855 0.0021479 0.088465 
0.15357 0.11855 0.070873 -0.024158 -0.012156 0.022206 0.018589 0.077121 
0.055911 0.17856 0.078272 0.0018191 -0.001798 0.0098754 0.027139 -0.00064712 
-0.037476 0.16525 0.049335 0.034537 0.024508 -0.011827 0.0052718 -0.036489 
0.0075736 0.068078 0.027303 0.060679 0.050321 0.01152 0.014643 -0.019719 
0.081395 -0.01528 0.026646 0.047362 0.061666 0.06183 0.015137 0.031907 
0.042758 -0.0047575 0.057227 0.068078 0.05476 0.054103 0.033551 0.034044 
0.031578 0.055747 0.028947 0.075148 0.036182 0.00099702 0.056733 0.05213 
0.031578 0.13927 0.047362 0.030592 0.032236 0.0079024 0.020069 0.024179 
0.01563 0.13697 0.030427 -0.0096899 0.0069159 0.0070803 0.015465 0.03799 
0.0041209 0.047691 0.0098754 -0.01117 -0.0070593 0.022206 0.011191 0.034702 
-0.05589 -0.063618 -0.037311 0.037168 0.012999 0.014808 0.017603 0.040128 
-0.041093 -0.10373 -0.03353 0.033715 0.036839 0.019411 0.041114 0.03536 
-0.0013048 -0.031392 0.0070803 0.050979 0.053609 0.024837 0.031414 0.03651 
0.04095 0.050486 0.061172 0.058213 0.034373 0.042923 0.039634 0.04506 
0.11905 0.15242 0.10392 0.045389 0.027468 0.052294 0.025824 0.053116 
0.12891 0.24269 0.10376 0.034373 0.032236 0.017438 0.024015 0.076463 
0.011848 0.19106 0.061337 0.020891 0.032893 0.013657 0.0072447 -0.012649 
-0.21356 -0.092226 -0.078415 -0.0072237 -0.017253 0.0044497 -0.0052507 -0.043559 
-0.22984 -0.24316 -0.10357 -0.015444 0.016945 0.014643 -0.0044286 -0.034516 
-0.11278 -0.24135 -0.091732 0.023522 0.021056 0.0227 -0.0077169 0.013492 
-0.0021268 -0.16161 -0.053917 0.042923 0.036182 0.018096 0.020069 0.027303 
0.060679 -0.033037 0.010697 0.052623 0.045882 -0.0022913 0.050486 0.065447 
0.079258 0.08863 0.071695 0.049992 0.044731 0.030427 0.049992 0.046375 
0.12447 0.14831 0.081724 0.071859 0.049828 0.051801 0.04506 0.072188 
0.10622 0.1927 0.071366 0.1026 0.075476 0.051143 0.053774 0.074983 
0.053938 0.17199 0.066269 0.079094 0.067749 0.046046 0.048513 0.078929 
-0.0024557 0.082711 0.041772 0.023357 0.032564 0.033387 0.047197 0.046046 
-0.018733 0.037168 0.029605 -0.019719 0.0026412 0.012506 0.0031344 0.018425 
0.052623 0.047362 0.04654 0.016945 -0.018239 0.031578 0.0014903 0.047033 
0.094384 0.14026 0.082382 0.01415 0.026317 0.02533 0.029276 0.026646 
0.1276 0.17182 0.1077 0.023686 0.016288 0.031578 0.015301 -0.018075 
0.1636 0.15094 0.11017 0.024015 -0.00097594 -0.0026201 0.014808 -0.021199 
0.098001 0.12118 0.076956 -0.020541 0.0013258 -0.011663 0.0083956 0.00017495 
0.0062583 0.10622 0.055911 -0.015938 0.021713 -0.0031133 0.012177 0.047197 
-0.020048 0.059693 0.029112 -0.0095255 0.01267 0.0041209 0.025988 0.058542 
0.048019 0.0013258 -0.010676 0.010369 0.011848 0.0019835 0.033222 0.060515 
0.099316 -0.0077169 -0.018075 0.0013258 0.014479 0.0059294 0.037004 0.056076 
0.0013258 0.0054362 -0.013636 0.0031344 0.033058 0.017932 0.018425 -0.066577 
-0.15947 -0.064768 -0.063782 0.00066819 0.012835 0.030592 0.0031344 -0.067399 
-0.082361 -0.10489 -0.059507 0.023522 0.021384 0.0013258 0.0018191 0.0024767 
0.09833 0.020727 0.062323 0.069393 0.079751 0.055089 0.088465 0.098659 
0.2103 0.17445 0.20323 0.12464 0.13927 0.092082 0.075312 0.12612 
0.1276 0.18251 0.12381 0.099481 0.1151 0.10178 0.049992 0.090274 
-0.072167 -0.029584 -0.020048 0.020891 0.059364 0.054925 0.013657 -0.015444 
-0.17558 -0.15487 -0.047834 0.0019835 0.023686 0.0067515 0.0080668 -0.0091966 
-0.025967 -0.018897 0.077778 0.048019 0.03947 -0.0055795 0.042429 0.031742 
0.15259 0.14782 0.13532 0.081724 0.053609 0.022864 0.068736 0.094877 
0.21309 0.21556 0.14552 0.0064227 -0.0095255 0.05624 0.046868 0.10819 
0.14815 0.1641 0.092082 -0.03205 -0.027775 -0.012649 0.010533 0.069064 
0.086163 0.079094 0.076956 -0.012978 -0.02235 -0.027775 -0.0082102 0.023357 
0.023522 0.041443 0.0026412 -0.023994 0.00050378 -0.054904 -0.02794 -0.0096899 
-0.05885 0.063639 -0.043066 -0.028269 0.0059294 -0.0027845 0.00066819 -0.035667 
-0.14747 0.054596 -0.098638 -0.031064 0.023028 -0.0014692 0.0065871 -0.033694 
-0.10965 -0.06148 -0.085156 0.035031 0.040456 0.029276 0.041772 -0.0049219 
0.029934 -0.063453 0.013986 0.075805 0.090274 0.060186 0.065612 0.049828 
0.14535 0.043416 0.10836 0.12085 0.094713 0.079094 0.085999 0.071366 
0.19501 0.17922 0.15308 0.089452 0.059528 0.051801 0.061995 0.062159 
0.17018 0.17281 0.12579 0.049992 0.010204 0.019083 0.024837 0.04095 
0.15374 0.074161 0.079258 0.0013258 0.027632 0.012342 0.013492 0.030427 
0.084848 0.031414 0.00083261 -0.010019 0.016616 -0.0034422 0.0021479 0.029112 
-0.043724 -0.030077 -0.027611 0.0075736 -0.0088678 -0.010348 0.007738 0.012177 
-0.06707 -0.092554 -0.079072 -0.024816 -0.016924 0.0024767 0.0069159 0.025988 
-0.047012 -0.12873 -0.069536 -0.0082102 0.0042853 -0.0013048 0.0072447 0.041607 
-0.020048 -0.10291 0.0018191 0.04506 0.056898 0.038483 0.0011614 0.058542 
-0.018733 -0.062467 -0.014787 0.065447 0.039305 0.03388 0.033058 0.07597 
0.020727 0.030098 0.054925 0.076463 0.072681 0.057884 0.070708 0.070708 
0.06183 0.10145 0.11132 0.090931 0.069229 0.069722 0.05772 -0.023336 
0.025495 0.19862 0.13746 0.084848 0.050814 0.047855 0.010204 -0.07562 
-0.021856 0.17199 0.062488 0.040456 0.01826 0.0080668 -0.023336 -0.086307 
-0.02794 0.064625 -0.027282 -0.01939 -0.0082102 -0.027282 -0.025309 -0.027447 
0.027796 -0.047834 -0.057863 -0.017582 -0.0040998 0.0070803 0.013492 0.013986 
0.12464 -0.02235 0.048677 0.055089 0.040785 0.036675 0.036017 0.079258 
0.16919 0.073339 0.16163 0.063803 0.050321 0.044238 0.054267 0.11494 
0.19287 0.17297 0.14223 0.023193 -0.022679 0.019083 0.048348 0.13171 
0.19862 0.22279 0.10951 -0.014293 -0.048656 -0.0040998 0.037497 0.1225 
0.1567 0.16607 0.037332 0.020562 -0.0060728 0.0083956 0.038483 0.070544 
0.012342 0.00099702 -0.10324 -0.032543 -0.0060728 -0.0031133 -0.029748 -0.034845 
-0.20616 -0.15273 -0.1792 -0.035996 -0.0138 -0.032872 -0.073318 -0.089759 
-0.30448 -0.21027 -0.15865 -0.034845 -0.047341 -0.037476 -0.064933 -0.069208 
-0.18298 -0.11015 -0.03353 0.053774 0.03799 0.0079024 -0.0016336 -0.039942 
-0.080223 -0.041093 0.079587 0.10606 0.066434 0.13171 0.039305 0.030756 
-0.13448 -0.033365 0.066763 0.10787 0.084026 0.080244 0.061172 0.030592 
-0.049314 0.031249 0.042758 0.095699 0.078765 0.073997 0.041607 0.079916 
0.15176 0.08715 0.057227 0.053116 0.042594 0.049335 0.047362 0.089616 
0.22575 0.11937 0.071531 0.039305 0.022535 0.0079024 0.025659 0.10754 
0.17084 0.14387 0.088794 -0.0064016 0.0059294 0.023686 0.039963 0.086328 
0.094055 0.13927 0.059364 0.012835 -0.02235 0.0075736 0.024837 0.049335 
0.096028 0.14585 0.091918 0.027139 -0.0078813 0.028947 0.017932 0.033715 
0.1276 0.16179 0.070215 0.016945 0.0069159 -0.0026201 -0.0013048 0.029276 
0.11263 0.1567 0.098988 0.047855 0.0082312 0.03651 -0.0050863 0.018096 
0.020069 0.053774 0.030263 0.011848 -0.021034 0.010533 0.014315 0.0018191 
-0.084991 -0.063782 -0.035174 -0.024487 -0.01676 -0.0060728 -0.0060728 -0.0082102 
-0.064933 -0.086142 -0.033859 -0.018897 -0.0098543 0.0065871 0.0034632 0.0018191 
0.0092177 -0.045532 0.0023123 0.017767 -0.031886 0.0079024 0.01563 0.055254 
0.07038 0.041443 0.072024 -0.0031133 -0.025638 0.012013 0.03092 0.055418 
0.16738 0.13746 0.12398 0.014808 -0.013471 0.0090533 0.058706 0.095864 
0.26439 0.23035 0.14469 0.047526 0.039141 0.029934 0.062981 0.10014 
0.29431 0.25025 0.13713 0.073668 0.075312 0.030756 0.048513 0.10129 
0.18826 0.21309 0.12694 0.06183 0.064132 0.025166 0.033222 0.039799 
-0.025638 0.13861 0.079422 0.076792 0.068736 0.032236 0.026152 0.016452 
-0.29117 -0.092226 -0.060658 0.060844 0.063145 0.044896 0.037661 -0.038298 
-0.40856 -0.22622 -0.19696 0.02681 0.082546 0.037661 0.019247 -0.080881 
-0.32915 -0.24924 -0.19104 0.042758 0.088465 0.038977 0.019576 -0.068714 
-0.17525 -0.18397 -0.11574 0.014808 0.049992 0.034537 -0.0083746 -0.026953 
-0.13333 -0.11722 -0.087458 0.057555 0.0044497 0.016781 -0.0082102 -0.021034 
-0.06 -0.081045 0.022371 0.057884 0.013821 0.00066819 0.030756 0.00297 
0.075476 -0.06 0.074161 0.059035 0.043416 0.048513 0.048677 0.052459 
0.065118 -0.067728 0.11362 0.063639 0.048677 0.056898 0.06479 0.07449 
0.059693 0.025659 0.12727 0.046704 0.034866 0.049828 0.057884 0.079258 
0.12792 0.16821 0.12513 0.014315 0.0085601 0.0046141 0.042265 0.064132 
0.14963 0.26587 0.10556 -0.0064016 0.0075736 -0.0004827 0.035524 0.062981 
0.14765 0.2486 0.0786 0.019083 0.0013258 0.021056 0.022206 0.05213 
0.15341 0.2024 0.069558 0.007738 -0.0011404 0.0026412 0.019905 0.038483 
0.10721 0.14667 0.032729 0.007738 0.02533 0.016616 0.014972 0.039963 
0.078272 0.095371 0.01826 0.0092177 0.029605 0.012342 0.023028 0.015794 
0.033387 0.06035 0.018754 0.030098 0.03947 -0.0032777 0.041607 0.01826 
0.021384 0.016945 0.026152 0.018589 0.010697 -0.0052507 0.026317 0.02122 
0.016452 0.0021479 -0.0080457 -0.001798 0.019905 0.016123 0.0019835 0.021056 
0.0031344 0.0032988 -0.00064712 0.044731 0.042265 0.039634 0.031742 0.027961 
-0.026296 -0.0088678 -0.034845 0.033715 0.026152 0.0024767 0.019905 0.0028056 
-0.00015387 0.0085601 0.02122 0.030263 0.02829 0.019411 0.047526 0.0052718 
0.036017 -0.0019624 0.021713 0.045389 0.033222 0.018754 0.027796 0.0082312 
0.030263 0.019905 0.026646 0.046704 0.031907 0.012999 0.015959 0.033058 
0.050814 0.051636 0.030756 0.015465 0.049664 0.026646 0.025001 0.0085601 
0.053281 0.056076 0.026481 0.029769 0.02533 0.01267 0.050157 0.021878 
0.047526 0.037661 0.066269 0.024837 0.0039565 0.020891 0.047362 0.021056 
0.043416 0.061501 0.088465 0.025495 0.01415 0.03651 0.054925 0.07301 
0.10935 0.14798 0.11411 0.018754 0.010862 0.045389 0.037497 0.057062 
0.19517 0.26242 0.1539 -0.02942 0.00033937 0.013821 0.028454 0.066105 
0.25452 0.30155 0.16245 0.0026412 -0.031886 0.00099702 0.020891 0.062817 
0.16442 0.20306 0.066434 -0.034516 0.023028 -0.010019 0.03092 0.047362 
-0.031064 0.015137 -0.08121 -0.02498 0.040785 -0.011005 0.01004 -0.024487 
-0.26552 -0.15898 -0.145 -0.009361 0.045882 -0.0095255 -0.019884 -0.08532 
-0.31977 -0.22096 -0.13333 0.023028 0.011848 0.0074092 -0.00081153 -0.11771 
-0.19877 -0.20025 -0.083183 0.046046 0.047526 0.043087 0.045882 -0.01528 
-0.055561 -0.17887 -0.11738 0.068242 0.088794 0.054596 0.05476 0.073997 
0.056404 -0.068057 0.037497 0.12595 0.10852 0.064132 0.056076 0.084684 
0.074819 0.093891 0.13236 0.13056 0.10524 0.065776 0.035195 0.065118 
0.062817 0.13253 0.12595 0.051308 0.03651 0.016616 0.016781 0.024673 
0.078107 0.069229 0.027961 -0.032543 0.0059294 -0.018239 0.0052718 0.022206 
0.13023 0.091918 0.039305 -0.003771 -0.013636 -0.015773 0.013164 0.035853 
0.1539 0.1276 0.068571 -0.036489 -0.021856 -0.011827 0.013164 0.043416 
0.14864 0.14996 0.095371 -0.020377 -0.0031133 0.012177 0.016288 0.044238 
0.11806 0.15144 0.11132 -0.0032777 0.011848 0.00099702 -0.0052507 0.06479 
0.11181 0.13812 0.05476 0.033058 0.033058 0.01415 0.038319 0.039963 
0.087479 0.12957 0.069229 0.028947 0.055911 0.036346 0.054103 0.07038 
0.06742 0.14716 0.073504 0.029934 0.03799 0.068078 0.037004 0.047033 
0.046375 0.10491 0.087643 0.063968 0.035195 0.048184 0.024179 0.043909 
0.034537 0.05772 0.052623 0.012013 0.032564 0.010204 0.018754 0.030263 
0.015465 0.017932 0.0036276 0.0016547 0.033715 0.015137 0.024508 0.028619 
-0.0036066 0.0026412 0.0065871 0.014315 0.020069 0.011848 0.034044 0.010697 
-0.015773 0.017438 0.016616 0.037661 0.0083956 0.027468 0.020069 0.021056 
-0.013143 0.0067515 0.029276 0.019905 0.038648 0.023357 0.0065871 0.018918 
-0.025802 -0.021528 0.0021479 0.02829 0.043087 0.0095465 0.015137 0.017603 
-0.022021 -0.030899 0.020069 0.040785 0.015794 -0.0036066 0.034866 0.0080668 
-0.0095255 -0.0019624 0.016781 0.038812 0.014808 0.020398 0.027796 0.015137 
0.0036276 0.0011614 0.048841 0.025988 0.030756 0.038155 0.031249 0.025166 
0.018918 0.00050378 0.018918 0.018754 0.040621 0.014972 0.055911 0.038977 
0.014479 -0.006566 0.010697 0.049828 0.024179 0.028783 0.020398 0.024344 
0.012013 -0.015444 0.032729 0.064132 0.00033937 0.02829 0.028619 0.017603 
0.043251 0.021384 0.031249 0.029441 0.031085 0.037661 0.025824 0.020727 
0.073175 0.036675 0.051308 0.050321 0.047691 0.023851 0.026974 0.045224 
0.08863 0.065118 0.038812 0.06035 0.052952 0.027468 0.020398 0.06594 
0.069229 0.055911 0.016945 0.034537 -0.013636 0.03092 0.047691 0.035853 
0.0037921 0.082711 0.035524 -0.011992 -0.032379 0.00066819 0.032236 0.035524 
0.071695 0.10589 0.13138 0.026646 -0.018075 0.023522 0.042758 0.017438 
0.24186 0.27606 0.19895 0.040456 0.023193 0.015465 0.016781 0.10672 
0.40578 0.42749 0.28034 0.018918 0.014972 -0.0080457 0.01267 0.13187 
0.41861 0.41384 0.19796 -0.010019 -0.025802 0.0052718 0.028619 0.14223 
0.20372 0.1738 0.060844 -0.003771 -0.025145 0.011848 0.048184 0.083533 
-0.19301 -0.088444 -0.072496 -0.027118 -0.004593 0.04654 0.0075736 -0.037969 
-0.41004 -0.3377 -0.27505 -0.030242 0.0026412 -0.0055795 -0.05178 -0.17427 
-0.55078 -0.63709 -0.41875 -0.064275 0.056733 -0.01676 -0.072989 -0.18446 
-0.56672 -0.67836 -0.39179 0.078929 0.1174 0.041443 -0.017746 -0.14698 
-0.43634 -0.41333 -0.12494 0.19846 0.18744 0.10852 0.06742 -0.068879 
-0.14056 -0.036818 0.11346 0.23627 0.18202 0.13631 0.11247 0.0080668 
0.22509 0.22427 0.21835 0.19912 0.093891 0.091753 0.10573 0.11806 
0.39345 0.32999 0.25025 0.073504 0.024344 0.060022 0.070708 0.14864 
0.41516 0.33361 0.21589 -0.008539 -0.012978 0.0046141 0.035853 0.15045 
0.31782 0.26307 0.15176 -0.049642 -0.038133 -0.0034422 0.022042 0.11378 
0.20553 0.21243 0.083533 -0.058028 -0.079237 -0.034352 0.0032988 0.076463 
0.11099 0.17528 0.043251 -0.073811 -0.076277 -0.058356 0.010697 0.048019 
0.091918 0.1664 0.041443 -0.052437 -0.03912 -0.018404 0.00297 0.019083 
0.075805 0.1197 0.036182 -0.015116 0.00066819 -0.016924 -0.0021268 -0.0042642 
0.049664 0.058542 -0.0064016 0.013986 -0.0047575 0.024837 0.020233 0.023686 
0.007738 0.022042 -0.027282 0.021878 0.0070803 0.0060938 0.013492 0.034537 
-0.012649 0.012013 -0.013965 0.01974 0.028619 0.014315 0.016288 0.0034632 
-0.014787 -0.0060728 -0.011334 0.070544 0.051308 -0.0087034 0.024344 0.00297 
-0.024323 -0.038791 0.0080668 0.047362 0.034044 0.017274 0.01563 0.00050378 
-0.035503 -0.044217 -0.001798 0.032071 0.032236 0.024673 0.03388 0.0016547 
-0.050629 -0.036325 -0.0095255 0.038977 0.033551 0.016781 0.031907 1.0539e-005 
-0.047505 -0.0057439 0.014315 0.056569 0.049499 0.018918 0.03536 0.013328 
-0.029255 -0.015609 0.020069 0.038483 0.048677 0.0070803 0.022042 0.0079024 
-0.0014692 -0.0138 -0.0082102 0.042923 0.041278 0.041936 0.022042 0.026646 
0.0085601 -0.018075 -0.01676 0.065447 0.044567 0.029276 0.041936 0.022864 
-0.0032777 0.005765 -0.0024557 0.058213 0.043909 0.022042 0.032893 0.01974 
0.011191 0.012506 0.038319 0.049499 0.054596 0.04654 0.024673 0.01152 
0.0041209 0.019083 0.01826 0.034373 0.020398 0.013657 0.019576 0.028454 
0.034537 0.03536 0.023028 0.055582 0.0087245 0.011355 0.029276 0.073997 
0.03388 0.051801 0.037661 0.028125 0.01415 0.015959 0.052294 0.043251 
0.11658 0.15604 0.068736 0.026974 0.0028056 0.020069 0.032071 0.0039565 
0.16492 0.17248 0.16656 0.017767 -0.021528 0.011684 0.023851 0.067913 
0.26669 0.28543 0.13121 -0.02235 -0.044381 -0.00015387 0.048841 0.1026 
0.38655 0.44524 0.19928 -0.029913 -0.041586 -0.0049219 0.035031 0.11543 
0.47402 0.53173 0.15999 -0.031886 -0.023007 -0.025309 0.029441 0.10902 
0.37981 0.3928 0.1008 0.012999 0.031578 -0.0091966 -0.0098543 0.093069 
-0.032379 -0.10078 -0.13316 -0.014458 0.038812 -0.016431 -0.013636 -0.0091966 
-0.56639 -0.66159 -0.35036 0.039305 0.083533 0.065612 0.013328 -0.10423 
-0.77043 -0.7729 -0.29445 0.16146 0.17478 0.11296 0.084026 -0.11491 
-0.72966 -0.56705 -0.14944 0.2103 0.16804 0.11296 0.061337 -0.096665 
-0.40264 -0.26239 -0.036325 0.083697 0.077614 0.048677 0.013492 -0.033859 
-0.041586 0.08156 0.074983 0.035031 0.016288 -0.009361 0.0093821 0.0227 
0.25683 0.27064 0.15703 0.026974 0.0032988 0.0064227 0.029605 0.093233 
0.3974 0.3198 0.14848 0.013986 0.016452 -0.0011404 0.062323 0.12431 
0.37619 0.28987 0.16525 -0.0016336 -0.0095255 -0.0080457 0.065447 0.13993 
0.3244 0.31125 0.16558 -0.019884 -0.0057439 -0.013965 0.053774 0.10507 
0.25091 0.27524 0.11888 0.0054362 -0.02087 -0.013143 0.034209 0.096193 
0.1784 0.20273 0.087972 -0.021034 -0.009361 -0.0050863 0.018589 0.059693 
0.096521 0.1687 0.073339 -0.049642 0.010533 -0.0090322 0.005765 0.033058 
0.040621 0.10606 0.05213 -0.0034422 -0.00015387 -0.011498 0.013986 0.013164 
0.024508 0.042594 0.0087245 0.033715 0.00099702 -0.014787 0.014808 0.018918 
0.0023123 0.026974 0.0080668 0.018589 0.0014903 0.014315 0.021384 0.022206 
-0.0019624 0.040456 0.021878 0.045882 0.045882 0.048184 0.020233 0.021384 
-0.011498 0.01711 0.03651 0.051308 0.025659 0.031249 0.040621 0.024673 
-0.02498 -0.018733 -0.0014692 0.057884 0.024673 0.036017 0.048019 0.0080668 
-0.025145 -0.013307 -0.0062372 0.030263 0.034373 0.025988 0.026481 0.018589 
-0.02794 0.005765 -0.0021268 0.03947 0.050321 0.035524 0.028125 0.0095465 
-0.025145 0.011191 0.020562 0.047691 0.029605 0.039963 0.0074092 0.012506 
-0.017911 0.0014903 0.04095 0.034209 0.03388 0.023193 0.04506 0.01004 
1.0539e-005 -0.011992 0.0051074 0.016452 0.048348 0.020069 0.036182 0.028125 
0.0046141 0.0079024 0.009711 0.025988 0.054103 0.018096 0.032893 0.010204 
-0.0042642 0.03651 0.02533 0.03388 0.046868 0.045224 0.024344 0.032729 
-0.0004827 0.037661 0.034702 0.014479 0.027139 0.030756 0.032236 0.017767 
0.0052718 -0.0052507 0.013164 0.029441 0.030592 0.0324 0.052459 0.0421 
0.019905 -0.0034422 0.01004 0.041772 0.026974 0.0032988 0.024179 0.024673 
0.031249 0.039963 0.038319 0.021878 0.03651 0.01563 0.017767 0.042923 
0.088958 0.095206 0.07301 0.011355 0.0016547 0.03092 0.0090533 0.041278 
0.093398 0.13368 0.053445 0.052294 -0.022843 0.011848 0.033715 0.061172 
0.1299 0.14798 0.090931 0.025659 -0.018075 0.00050378 0.038648 0.077449 
0.082382 0.16804 0.055089 -0.0059084 0.047197 0.018096 0.023357 0.064625 
0.065612 0.1442 0.048841 0.0032988 0.0011614 0.032893 0.013492 0.014972 
0.07038 0.13253 0.0074092 0.0054362 0.030427 0.03536 0.0037921 -0.039449 
0.20092 0.18383 0.007738 0.0018191 0.029112 0.014479 -0.014293 -0.036325 
0.27606 0.21523 0.072353 0.060186 0.067749 0.02122 0.031907 0.033058 
0.21572 0.095042 0.063145 0.070051 0.08156 0.07449 0.068407 0.070544 
-0.042079 -0.083018 0.028619 0.13335 0.1174 0.098988 0.058049 0.012835 
-0.41842 -0.33342 -0.13843 0.070544 0.081231 0.044238 0.01826 -0.074798 
-0.50803 -0.37321 -0.16572 0.015959 0.022371 -0.0096899 -0.02646 -0.11755 
-0.35808 -0.23198 -0.052766 0.012999 0.016123 0.014643 0.021878 -0.022514 
-0.1404 -0.071016 0.078272 0.052294 0.014479 0.027961 0.039963 0.069064 
0.09274 0.10047 0.16804 0.020562 0.019247 0.063968 0.043416 0.10737 
0.23331 0.21474 0.14239 -0.0062372 -0.0022913 0.033387 0.024673 0.081395 
0.28461 0.2394 0.098988 0.0016547 0.010533 0.0031344 -0.0087034 0.058871 
0.23989 0.22033 0.061172 -0.028597 -0.021034 -0.011663 0.0051074 0.035524 
0.24301 0.19895 0.062488 -0.01939 -0.0042642 0.00050378 0.00050378 0.052787 
0.21457 0.12135 0.040621 0.013821 -0.0011404 0.024837 0.0080668 0.041443 
0.16886 0.098988 0.042923 0.044073 0.023193 0.0095465 0.015465 0.049828 
0.095699 0.064296 0.052294 0.044238 0.031414 0.01563 0.024344 0.019083 
0.038812 0.089616 0.058871 0.034702 0.029934 0.038155 0.043087 0.020233 
-0.001798 0.05476 0.054432 0.025166 0.04917 0.051636 0.037004 -0.0088678 
-0.022679 0.011848 0.01152 0.055418 0.054103 0.053281 0.014808 -0.0031133 
-0.048656 -0.00031829 0.015137 0.017274 0.042265 0.044567 0.0031344 -0.0062372 
-0.049149 -0.013143 0.024344 0.019905 0.040128 0.016123 0.0052718 -0.0013048 
-0.020212 0.015794 0.063968 0.051636 0.029934 0.022864 0.011026 0.0074092 
-0.013307 0.0069159 0.012506 0.035031 0.062817 0.042923 0.033222 0.021713 
0.00297 -0.0088678 0.02122 0.043251 0.060844 0.04358 0.021713 0.029441 
-0.021528 -0.00064712 0.027468 0.040456 0.049006 0.056733 0.011684 0.026481 
-0.023829 0.023522 0.055254 0.049499 0.0098754 0.025001 0.027961 0.024344 
0.0059294 0.005765 0.051965 0.026481 0.017767 0.00083261 0.036017 0.028619 
0.015137 0.047033 0.048841 0.021384 0.018918 0.024673 0.023193 0.048841 
0.053938 0.087314 0.059528 0.013821 0.010862 0.016452 0.029605 0.031578 
0.14634 0.11132 0.087808 0.034044 0.035524 0.026317 0.029605 0.074654 
0.2833 0.19451 0.1493 0.044073 0.071695 0.056076 0.071366 0.13121 
0.34676 0.24795 0.20536 0.07449 0.060679 0.057555 0.086492 0.15571 
0.17659 0.23792 0.18169 0.10589 0.058377 0.051472 0.053445 0.067913 
-0.22343 0.063474 -0.020541 -0.027118 0.014479 -0.019061 -0.024816 -0.086307 
-0.53269 -0.18824 -0.26387 -0.13251 -0.038133 -0.073647 -0.094692 -0.22014 
-0.51132 -0.41234 -0.36943 -0.10127 -0.014787 -0.052437 -0.092226 -0.21751 
-0.22524 -0.39409 -0.21866 0.053445 0.041936 0.026974 0.017767 -0.038627 
0.061008 -0.27999 -0.045039 0.12546 0.063968 0.083204 0.090767 0.1271 
0.1835 -0.099789 0.094548 0.16081 0.11625 0.10984 0.096521 0.15275 
0.147 0.11691 0.22855 0.14256 0.098988 0.076134 0.046868 0.11165 
0.11724 0.22115 0.16574 0.053116 0.046868 0.046704 0.041936 0.056404 
0.11477 0.16146 0.094877 -0.0042642 0.0041209 0.029934 0.04095 0.0046141 
0.13927 0.11494 0.045718 -0.015773 -0.022185 0.014808 0.030592 0.009711 
0.15785 0.15209 0.093891 0.027961 -0.01528 -0.0011404 0.030427 0.01974 
0.16146 0.16262 0.086163 -0.0072237 0.012342 -0.0095255 0.024508 0.074819 
0.13171 0.17297 0.070873 0.0032988 -0.0075525 -0.0059084 0.032236 0.074161 
0.083862 0.15423 0.056076 0.014643 -0.0013048 0.015959 0.038812 0.061666 
0.024344 0.10425 0.037168 0.016288 0.0064227 0.0062583 0.025495 0.031085 
-0.011992 0.065283 0.020727 0.0046141 0.031085 0.016288 0.023193 0.029276 
-0.0039354 0.0052718 -0.031886 -0.010019 0.0095465 -0.0083746 0.016616 0.017603 
0.018425 0.029441 -0.018733 0.03799 -0.00081153 -0.018568 0.035195 0.051143 
0.010533 -0.0013048 -0.010183 0.043416 0.013492 0.020069 0.02829 0.022535 
-0.0054151 0.0046141 0.041443 0.027632 0.039305 0.040292 0.032236 0.045553 
-0.046354 0.032893 0.004943 0.043745 0.057884 0.037497 0.032564 0.0064227 
-0.046847 0.046375 0.017932 0.066105 0.040785 0.036346 0.032729 -0.01117 
1.0539e-005 0.018096 0.016123 0.037497 0.034044 0.031578 0.024344 -0.0026201 
0.038812 0.048348 0.031414 0.02681 0.048348 0.026974 0.020069 0.013492 
0.058377 0.055254 0.031742 0.044238 0.051143 0.0093821 0.020891 0.026974 
0.045882 0.029605 0.0075736 0.024179 0.033058 0.0074092 0.032236 0.061666 
0.047033 0.0034632 -0.012978 0.01711 0.031414 0.013821 0.019083 0.056898 
0.043745 0.015137 -0.0004827 0.01415 0.0044497 0.03092 0.055582 0.045389 
0.0088889 0.062817 0.049664 0.037826 0.016781 0.021878 0.039305 0.054596 
-0.003771 -0.0024557 0.0090533 0.0065871 0.019247 0.0070803 0.027139 0.041443 
-0.0057439 -0.0034422 0.03092 -0.0095255 0.025495 0.012013 0.013986 0.020562 
0.01004 0.0227 0.0046141 0.02122 0.020398 0.011848 0.011026 0.016945 
-0.0075525 0.030756 0.041607 0.056404 0.058871 0.017767 0.027468 0.0060938 
-0.015938 0.044731 0.048513 0.032236 0.041772 0.012342 0.041772 -0.020706 
0.031578 0.051801 -0.0067304 0.017438 0.024015 0.0060938 0.02681 0.02533 
0.10047 0.072353 0.0098754 0.026152 -0.0036066 -0.0098543 0.028619 0.048513 
0.14272 0.10507 0.040456 0.020562 0.037004 0.0095465 0.024673 0.10326 
0.15735 0.13335 0.072846 0.026152 0.034866 0.016616 0.047855 0.060022 
0.12875 0.12283 0.056404 0.035195 0.026317 0.027632 0.033551 0.060022 
0.054596 0.11724 0.059857 0.04654 0.037332 0.024344 0.034044 0.0098754 
-0.020706 0.13746 0.060679 0.01267 0.021713 -0.0016336 0.015301 0.030592 
0.041278 0.15226 0.072353 -0.010841 0.012342 -0.0059084 0.011684 0.023193 
0.097672 0.10129 0.024344 0.012999 0.0052718 0.0065871 0.022371 0.013492 
0.10195 -0.028597 -0.015116 0.0037921 0.026481 -0.026789 0.016945 -0.016102 
0.021549 -0.10982 -0.028597 0.012999 0.044238 0.0098754 0.037497 0.025988 
-0.030406 -0.059178 -0.017253 0.082546 0.060022 0.037004 0.04358 0.033715 
0.0034632 0.058213 0.080244 0.078765 0.06742 0.062652 0.039963 0.037332 
0.042758 0.11099 0.084684 0.040456 0.055747 0.034702 0.058049 0.073668 
0.038319 0.088794 0.059857 0.031414 0.037826 0.011355 0.013164 0.044402 
-0.010512 0.097672 0.043416 0.031742 0.034866 0.015465 1.0539e-005 0.023522 
-0.018239 0.099645 0.067913 0.029441 0.030263 0.0060938 0.0080668 0.019905 
-0.074304 0.071859 0.041772 0.0051074 -0.0016336 0.007738 -0.0027845 0.0082312 
-0.061973 0.015794 0.0052718 -0.023501 -0.019226 -0.012156 0.0026412 0.026974 
0.019247 0.029441 0.020069 0.013821 0.0064227 0.0034632 0.018754 0.029605 
0.063968 0.067749 0.061995 0.017932 0.031742 0.031414 0.015301 0.079094 
0.050979 0.063803 0.045224 0.0074092 0.01004 0.016945 0.0054362 0.040621 
0.025824 0.0082312 -0.0036066 0.025495 0.029769 0.021384 0.01563 0.013328 
0.021384 0.029769 0.023686 0.065776 0.036675 0.0227 0.039141 0.023522 
0.056404 0.10228 0.073668 0.056404 0.077121 -0.00097594 0.051143 0.02829 
0.071859 0.1567 0.12316 0.063474 0.051801 0.03388 0.035853 0.066434 
0.12168 0.12414 0.070051 0.037332 0.02829 0.043745 0.016288 0.035853 
0.090931 0.0069159 -0.0031133 0.04095 0.024179 0.029934 0.028125 0.050157 
0.044402 -0.049807 -0.026624 0.0051074 0.011355 0.0041209 0.035688 0.02829 
-0.0027845 -0.032379 0.0062583 -0.016102 -0.0011404 -0.004593 0.027632 0.018754 
-0.059178 -0.006566 0.0072447 0.025824 0.0032988 -0.0042642 -0.013471 -0.026789 
-0.099295 0.0019835 0.0092177 0.034866 -0.0073881 0.031578 -0.019884 -0.0039354 
-0.093048 -0.036654 0.013164 0.039305 0.044073 0.030756 0.012177 -0.0072237 
-0.032215 -0.072989 -0.019226 0.050157 0.078436 0.037826 0.055911 0.039963 
0.0098754 -0.021199 0.070873 0.074983 0.049664 0.04358 0.052952 0.046868 
0.064461 0.063474 0.10573 0.060515 0.028619 0.058871 0.043251 0.060186 
0.072517 0.080738 0.081231 0.054432 0.042265 0.052787 0.036182 0.042594 
0.055747 0.074326 0.04917 0.039141 0.046211 0.043251 0.015137 0.026974 
0.037004 0.033222 0.041936 0.026481 0.016452 0.031907 0.049335 0.022535 
0.011355 0.032071 0.04095 0.017438 -0.0138 0.019905 0.016616 0.0080668 
-0.014129 0.012177 -0.0087034 0.0062583 -0.008539 0.013986 -0.0034422 1.0539e-005 
0.011191 0.050321 0.010862 0.046704 0.011191 0.03092 0.016616 0.0072447 
0.016452 0.09126 0.035853 0.0024767 0.018918 0.025824 0.033222 0.031249 
0.0011614 0.083862 0.048019 -0.0032777 -0.0047575 0.013821 0.025495 0.012342 
0.017603 0.054596 0.0082312 0.013328 0.011684 0.027303 0.025495 0.049499 
0.038648 0.019411 0.010862 0.023028 0.024344 0.03799 0.014643 0.020891 
0.01826 -0.019555 0.013328 0.021056 0.040456 0.042265 0.01563 0.042429 
-0.0021268 -0.0024557 0.044073 0.042758 0.031249 0.030098 0.050814 0.040621 
-0.0024557 0.077778 0.067256 0.082217 0.054925 0.015959 0.082053 0.041936 
0.026152 0.054432 0.03536 0.044731 0.028619 0.043745 0.04095 0.028947 
0.069558 0.061666 0.028454 0.016123 0.083368 0.06594 0.02533 0.060844 
0.094548 0.081395 0.051308 0.039799 0.021056 0.029934 0.021549 0.030098 
0.080738 0.060186 0.098001 0.060186 0.03092 0.028454 0.025659 0.0092177 
0.0421 0.02533 0.00017495 0.028125 0.02681 0.010533 0.022371 -0.033037 
0.045882 -0.01117 -0.021692 0.016945 0.017767 0.01152 0.004943 -0.01676 
0.020398 -0.02794 -0.032708 0.031085 0.010697 0.033715 -0.0004827 -0.028926 
-0.011663 -0.0057439 0.019083 0.028454 -0.0059084 0.0227 0.007738 0.019905 
-0.024816 0.069886 0.044731 0.0039565 0.025659 0.020069 0.024673 0.012013 
0.024015 0.097344 0.065612 0.035853 0.032071 0.0082312 0.038483 0.041607 
0.053445 0.11921 0.060186 0.087479 0.029441 0.037004 0.039634 0.06035 
0.096521 0.085835 0.033058 0.040456 0.020727 0.040292 0.030427 0.053609 
0.1008 0.056569 0.017274 0.02122 0.022206 0.018589 0.023357 0.053609 
0.10967 -0.013636 -0.01939 0.016123 0.025495 0.022206 0.033551 0.053116 
0.14305 -0.018404 0.025659 0.047526 0.020891 0.014643 0.033387 0.045553 
0.093562 0.040128 0.058213 0.041443 0.01711 0.025988 0.018425 0.024673 
0.048348 0.072517 0.077449 0.020727 0.0042853 0.017767 0.007738 -0.0042642 
-0.019555 0.075641 0.038812 0.057062 0.0070803 0.0014903 0.037004 -0.011663 
-0.026131 0.020398 -0.0073881 0.017603 0.028947 0.0083956 0.046375 0.034373 
-0.0011404 0.028125 -0.028104 -0.017088 0.0082312 0.019576 0.051965 0.042429 
0.026481 0.020727 0.009711 -0.004593 0.018425 0.029441 0.030263 0.024837 
0.039305 0.062817 0.060515 0.034537 0.025659 0.0090533 0.020069 0.013821 
0.075805 0.1031 0.027468 -0.0021268 0.011848 -0.0026201 0.012013 0.045553 
0.11132 0.12529 0.06035 -0.0091966 0.0054362 -0.0036066 0.040456 0.047362 
0.086492 0.1225 0.075641 0.031578 0.022042 0.032564 0.035195 0.058871 
0.094384 0.056898 0.077778 0.028454 0.0062583 0.042923 0.021056 0.043909 
0.1031 0.046868 0.02681 0.022206 0.039141 0.028454 0.013164 0.030592 
0.10162 0.016945 -0.011498 0.029276 0.041114 0.0079024 0.0095465 0.026974 
0.048841 0.0031344 -0.019719 0.051965 0.021549 0.0059294 0.023851 0.032729 
-0.069536 -0.038298 -0.031886 0.027961 0.028619 0.024179 0.029112 -0.0067304 
-0.12494 -0.055068 -0.028926 0.024837 0.018425 0.010369 0.025166 0.010697 
-0.02942 0.004943 0.01711 0.031249 0.055254 0.0098754 0.023686 0.031414 
0.099316 0.084355 0.073175 0.046046 0.039634 0.033551 0.016123 0.062323 
0.09422 0.10869 0.058049 0.023686 0.035524 0.023851 0.037661 0.041936 
0.019576 0.088465 0.055747 0.041607 0.035524 0.035688 0.02681 0.038319 
-0.07414 0.050157 0.01974 0.048348 0.049335 0.029605 0.024179 0.041936 
-0.091732 0.038648 0.035031 0.037826 0.0031344 0.0088889 0.013821 0.035688 
0.0037921 0.066105 0.036182 0.016123 0.028619 0.0028056 0.012177 0.06331 
0.10408 0.095699 0.072024 0.01415 0.032236 0.033387 0.050814 0.076956 
0.14124 0.11362 0.095371 0.05772 0.059693 0.049664 0.066434 0.05476 
0.10869 0.096521 0.061008 0.019247 0.033387 0.016123 0.033551 0.013821 
0.10228 0.029112 -0.01939 1.0539e-005 0.023028 -0.006566 0.029441 0.017438 
0.032564 -0.031721 0.0062583 0.0095465 0.022206 0.013164 0.03092 0.024837 
-0.010019 -0.01528 0.023851 0.047855 -0.0029489 0.058377 0.032893 0.076627 
-0.0004827 0.063474 0.00099702 -0.023501 -0.0036066 0.015794 0.040621 0.038319 
-0.053095 0.060515 -0.0068948 -0.058192 -0.015938 -0.021199 0.013328 0.039141 
-0.11015 -0.019555 -0.035832 0.018754 0.0062583 -0.0040998 0.018096 -0.0013048 
-0.1455 -0.063289 0.016123 0.035853 0.035853 0.014972 0.0070803 0.0065871 
-0.09798 0.055911 0.097179 0.092247 0.075148 0.040292 0.043251 0.0036276 
-0.0052507 0.14897 0.12809 0.097344 0.057555 0.060844 0.041607 0.029769 
0.10951 0.19336 0.10655 0.081889 0.046704 0.030098 0.047197 0.06035 
0.11444 0.10639 0.024508 -0.010183 0.047691 0.0324 0.039305 0.10162 
0.0034632 -0.033201 -0.029584 -0.0091966 0.03536 0.029769 0.019083 0.061008 
-0.061316 -0.082032 -0.06 0.020069 0.033715 0.027796 0.031578 0.0056006 
-0.018404 -0.06 -0.02498 0.02681 0.037661 0.02533 0.030098 0.034866 
0.094055 -0.018404 0.016945 0.034044 0.039799 0.014315 0.021056 0.041607 
0.12431 0.0095465 0.075641 0.049006 0.032564 1.0539e-005 0.020562 0.069558 
0.055418 0.079587 0.098823 0.081231 0.049006 0.0227 0.038648 0.031414 
-0.051451 0.097179 0.068407 0.023522 0.017438 0.029276 0.054267 -0.0031133 
-0.071674 0.061172 0.0087245 -0.00097594 0.017438 0.0011614 0.024837 -0.0083746 
-0.0004827 0.044238 0.023522 0.011191 0.045389 0.0021479 0.0051074 0.066927 
0.04095 0.086821 0.074819 0.055254 0.049006 0.0064227 0.02122 0.067749 
0.069886 0.11691 0.051965 0.017767 0.016616 0.031742 0.031907 0.075476 
0.11806 0.082382 0.051472 0.0088889 0.0013258 0.020562 0.033551 0.032564 
0.17215 0.071037 0.038648 0.033715 0.014479 0.0087245 0.016288 -0.019719 
0.16475 0.032236 0.041278 0.0421 0.031249 0.005765 0.021056 -0.023665 
0.083368 0.016288 0.015465 0.0421 0.027139 0.027468 0.026152 -0.0091966 
-0.0054151 -0.0098543 0.0021479 0.016945 0.021713 0.04095 0.029441 -0.03616 
-0.09239 -0.018075 -0.019719 0.026481 0.023028 0.026974 0.06035 0.029276 
-0.14632 0.00066819 0.0090533 0.013328 0.019411 0.010204 0.031085 0.031907 
-0.10291 0.0421 0.067256 0.025166 0.010697 -0.0044286 0.022864 0.036346 
-0.008539 0.13927 0.079751 0.067256 0.021549 0.0028056 0.013492 0.021549 
0.0039565 0.10178 0.044073 0.061008 0.032564 0.017767 0.019905 0.004943 
-0.011992 0.016452 0.029605 0.031249 0.064132 0.031742 0.046868 0.026317 
0.016123 -0.040435 0.045718 0.03536 0.03092 0.018589 0.039305 0.045882 
0.047362 -0.045696 0.018754 0.0592 0.0054362 0.013492 0.011355 0.047033 
0.063639 -0.044217 -0.028269 0.025988 0.0054362 0.011848 0.024837 0.038155 
0.07038 -0.060494 -0.031886 0.0072447 0.019411 0.024837 0.018589 0.024179 
0.079258 -0.024652 -0.0055795 0.028454 0.043416 0.01004 0.031578 0.0092177 
0.079916 0.074654 0.058049 0.043745 0.0023123 0.01415 0.014315 0.01974 
0.060022 0.15456 0.030592 0.017274 0.011684 0.056733 -0.011498 0.012835 
0.093726 0.10704 0.05065 0.00083261 0.026974 0.03536 0.0074092 0.041443 
0.060844 0.11543 0.033222 0.019247 0.037168 0.028783 0.027632 0.026317 
0.076134 0.073668 0.048019 0.036675 0.0069159 0.010862 0.034373 0.035524 
0.099481 0.10869 0.013164 0.010862 0.048348 0.01415 0.043745 0.035524 
0.098988 0.084848 0.005765 0.023851 0.022371 0.01004 0.01711 0.038648 
0.07038 0.092247 0.011191 0.055911 0.034702 -0.00064712 0.021384 0.029934 
0.03092 0.082053 0.05476 0.009711 0.032564 0.010697 0.031578 0.026646 
0.018918 0.046704 0.058871 0.023686 0.020233 0.01004 0.030756 0.020069 
0.028454 0.046704 0.032564 0.025001 0.0090533 0.011848 0.036839 0.021384 
0.080573 0.038155 0.040128 0.054267 0.036017 0.037004 0.034537 0.049335 
0.098494 0.051472 0.068571 0.019411 0.053774 0.074161 0.029112 0.063639 
0.094548 0.14321 0.1202 0.018096 -0.0029489 0.026317 0.0324 0.043416 
0.054432 0.18235 0.10688 0.02533 -0.020541 -0.011498 0.015465 0.01267 
0.055911 0.07301 0.028125 -0.010676 -0.028762 -0.017746 -0.0088678 0.030263 
0.055747 -0.044546 -0.017088 -0.021363 0.005765 -0.0004827 -0.0047575 0.035688 
0.0032988 -0.035996 -0.0055795 -0.046683 -0.037805 -0.013636 -0.015116 0.01711 
0.00297 0.096028 0.047855 0.027796 0.030756 0.0014903 -0.0073881 0.00297 
0.048184 0.17149 0.051472 0.094713 0.1003 0.072353 0.068078 0.050157 
-0.012485 0.082546 0.030263 0.13434 0.14634 0.11921 0.091753 0.064625 
-0.12346 -0.13892 -0.076606 0.058706 0.082053 0.091096 0.023851 0.034702 
-0.22787 -0.31813 -0.11278 0.044402 0.028947 0.019576 0.0054362 -0.01939 
-0.24332 -0.33704 -0.14648 0.02122 0.0227 0.0026412 0.026974 -0.01528 
-0.13168 -0.12971 -0.031557 0.025824 0.048348 0.016123 0.038155 -0.030406 
0.066763 0.087479 0.074983 0.043087 0.038648 0.0046141 0.027468 -0.012814 
0.17511 0.22197 0.12595 0.0037921 -0.0024557 0.022206 0.00033937 0.021549 
0.19402 0.21095 0.11083 -0.019555 0.0041209 0.0060938 0.0079024 0.067256 
0.16262 0.16821 0.066598 -0.0022913 -0.0062372 0.011026 0.032893 0.063145 
0.14486 0.13351 0.074654 0.043909 0.014972 0.01415 0.03799 0.063639 
0.10819 0.11181 0.077121 0.019083 0.0032988 0.018096 0.022535 0.039963 
0.064954 0.080573 0.085999 0.012835 0.018096 0.035031 0.005765 0.057062 
0.038977 0.083368 0.037826 0.032071 0.021549 0.028125 0.029276 0.039305 
0.015137 0.065776 0.025001 0.046704 0.045389 0.027632 0.03799 0.041443 
0.025166 0.046375 0.023686 0.020398 0.0037921 0.024015 0.021056 0.027468 
0.014479 0.028454 0.044896 0.017438 0.028454 0.033058 0.028454 0.0324 
0.024015 0.015794 0.018754 0.051801 0.042923 0.047362 0.032564 0.031907 
-0.01232 0.051143 0.028947 0.031085 0.048348 0.021384 0.027961 0.015301 
-0.022679 0.037826 0.029605 0.044567 0.054267 0.0024767 0.034044 0.013657 
-0.016924 0.005765 0.033387 0.024179 0.02122 0.015465 0.031249 0.010862 
0.0016547 0.00066819 0.01267 0.042923 0.012177 0.024673 0.038812 0.0098754 
0.023193 -0.0095255 0.0062583 0.0079024 0.031249 0.034209 0.020233 0.014479 
0.064132 0.013492 -0.021034 0.0013258 0.032071 -0.0050863 0.023686 -0.018733 
0.063803 0.042923 0.026481 0.035031 0.0092177 0.0095465 0.043909 -0.0054151 
0.060186 0.03947 0.035195 0.034537 0.028125 0.035853 0.034209 0.0042853 
-0.0082102 0.0227 -0.016595 0.018096 0.0421 0.040292 0.029769 -0.0039354 
-0.046519 0.064625 -0.004593 0.035524 0.062981 0.043416 0.041114 0.012177 
-0.03501 0.08156 0.027961 0.066434 0.0324 0.047526 0.048348 -0.0027845 
-0.0034422 0.062159 0.1008 0.075641 0.039141 0.034209 0.047526 0.061008 
0.091425 0.085835 0.14141 0.080738 0.054596 0.033058 0.055418 0.081724 
0.17577 0.12957 0.11181 0.050814 0.047197 0.031249 0.033222 0.08304 
0.14716 0.045718 -0.033859 0.019905 0.012342 -0.013143 0.0082312 0.044896 
-0.028433 -0.057699 -0.068057 -0.0011404 0.012013 0.0062583 0.0023123 0.016781 
-0.22293 -0.16687 -0.068714 0.018096 0.013986 0.010533 0.024673 -0.011334 
-0.23822 -0.17673 -0.055561 0.014315 0.026152 0.019576 0.022371 -0.015116 
-0.0021268 0.017438 0.021713 0.032071 0.032236 0.030756 0.01563 0.019576 
0.12085 0.13516 0.094384 0.036017 0.013821 0.017603 0.018918 0.054432 
0.12908 0.18728 0.11576 0.017932 0.012177 0.0039565 0.010204 0.047197 
0.083204 0.16804 0.091918 0.057391 0.032893 0.025001 0.025824 0.047033 
0.058706 0.12464 0.042758 0.0046141 -0.00064712 0.015959 0.022206 0.019411 
0.084519 0.063968 0.033387 -0.0027845 -0.014129 0.0026412 0.0072447 0.028947 
0.078436 0.044896 0.042265 0.024179 0.0092177 0.019411 0.01152 0.034537 
0.093562 0.064132 0.096193 0.040785 0.032071 0.015959 0.014972 0.060844 
0.1202 0.11395 0.097015 0.029112 0.037332 0.01563 0.045718 0.058542 
0.19583 0.21046 0.11313 0.055418 0.010862 0.019247 0.043909 0.069229 
0.2292 0.23085 0.12973 0.071531 0.034044 0.032071 0.022206 0.067749 
0.11921 0.20602 0.11724 0.061337 0.050157 0.034044 -0.0014692 -0.0059084 
-0.096007 -0.023007 -0.045696 0.0031344 0.035688 -0.016595 -0.009361 -0.028269 
-0.21307 -0.26996 -0.18759 -0.053424 -0.01528 -0.008539 0.024673 -0.0095255 
-0.15125 -0.24086 -0.109 0.034866 0.0042853 0.035031 0.042265 0.039963 
0.012999 -0.044546 0.074654 0.058049 0.0324 0.045553 0.06183 0.05065 
0.18185 0.10622 0.1225 0.053609 0.031907 0.0052718 0.022864 0.069722 
0.23463 0.20027 0.074983 0.043251 0.024673 0.0051074 0.024344 0.037332 
0.16722 0.23594 0.063639 0.04917 0.041114 0.032893 0.037661 0.029934 
0.043416 0.13647 0.05624 0.06479 0.065612 0.054925 0.048348 0.038155 
-0.082196 -0.046847 0.030427 0.038319 0.058377 0.03092 0.048019 0.076627 
-0.19959 -0.16736 -0.049807 0.039799 0.034209 0.00033937 0.015301 -0.0098543 
-0.30892 -0.22047 -0.088773 -0.032708 -0.012156 -0.021528 -0.01939 -0.091075 
-0.2277 -0.15372 -0.083183 -0.027282 -0.015938 -0.0080457 -0.029255 -0.10094 
-0.020706 -0.046519 -0.0019624 0.0088889 0.011355 0.010533 0.0075736 0.019411 
0.14765 0.063145 0.080409 0.077449 0.058377 0.035031 0.04095 0.051143 
0.19057 0.14782 0.09274 0.064954 0.049335 0.037661 0.053609 0.083533 
0.17018 0.14782 0.076627 0.062488 0.0019835 0.053445 0.036675 0.07301 
0.10885 0.16706 0.10343 0.05624 0.029276 0.067091 0.071531 0.061172 
0.11526 0.15341 0.092411 0.043416 0.0026412 0.038977 0.015465 0.069064 
0.10573 0.061172 0.026317 0.0021479 0.018425 0.0062583 0.01711 0.053609 
0.083368 0.043416 0.028454 -0.022021 -0.0026201 0.029441 -0.0072237 0.053609 
0.0032988 0.032071 0.029276 0.034209 0.024015 0.02829 0.029605 0.0034632 
-0.024323 0.04654 0.034537 0.011355 0.020562 0.031907 0.027139 -0.0067304 
-0.0021268 0.031578 0.023193 0.012999 0.027139 0.010369 0.0088889 0.011355 
0.038319 0.037826 0.00050378 0.025166 -0.017582 0.018589 -0.015773 0.040621 
0.052623 0.087314 0.012177 0.0324 0.027303 0.024673 0.031249 0.044731 
0.03651 0.08156 0.028454 0.015465 0.036346 0.027468 0.039799 0.047691 
-0.0027845 0.033551 0.040621 0.0072447 0.027303 0.014643 -0.0024557 0.01267 
-0.025474 -0.047505 -0.025309 0.017274 0.0024767 0.0064227 -0.0054151 0.0092177 
0.010204 -0.041751 -0.0503 0.018096 0.041443 0.0041209 -0.0011404 0.018754 
0.03388 -0.020541 0.012342 0.054596 0.054267 0.049664 0.023357 0.058049 
0.049499 0.031085 0.089287 0.093069 0.06594 0.080409 0.061995 0.06742 
-0.035996 0.068242 0.10228 0.0786 0.045224 0.056076 0.047033 0.034537 
-0.052437 0.1151 0.083533 0.011355 -0.015116 0.015301 0.029441 0.014643 
0.079751 0.16886 0.075641 -0.021034 -0.004593 0.0079024 0.021549 0.038648 
0.22378 0.22312 0.068078 0.035195 0.034866 0.018589 0.039799 0.080573 
0.23315 0.18991 0.072681 0.041114 0.050979 0.034209 0.050979 0.071037 
0.05772 0.047197 -0.00081153 0.0227 0.037497 0.011355 0.014315 0.02681 
-0.095349 -0.07266 -0.045368 0.0088889 0.038483 -0.0055795 -0.015773 -0.03616 
-0.1695 -0.11837 -0.054904 0.062817 0.059364 0.011026 0.0054362 -0.030735 
-0.1815 -0.1649 -0.044217 0.056404 0.074161 0.060186 0.037168 -0.073647 
-0.14862 -0.16309 -0.026131 0.05065 0.04654 0.071037 0.046868 -0.02646 
-0.054575 -0.039942 -0.0077169 0.05213 0.027961 0.048019 0.034537 0.0046141 
0.083533 0.062323 0.041772 0.031414 -0.0013048 0.017767 0.02829 0.046046 
0.16262 0.093233 0.047197 -0.010183 0.0088889 -0.0054151 0.035195 0.066598 
0.1761 0.083533 0.056733 -0.019555 -0.0062372 0.013986 0.050979 0.089945 
0.14009 0.095042 0.029769 0.010204 -0.01676 0.017438 0.06742 0.072353 
0.091589 0.14716 0.050486 0.018096 -0.0029489 0.0054362 0.041936 0.057062 
0.06742 0.14831 0.059693 0.0095465 0.01152 -0.0022913 0.024508 0.052623 
0.039305 0.1276 0.10063 0.027961 0.041278 0.00297 0.033222 0.040785 
0.021713 0.1031 0.081395 0.055254 0.037332 0.03092 0.033222 0.00050378 
0.019905 0.079258 0.056076 0.044567 0.041772 0.013986 0.057062 -0.024158 
0.03947 0.087972 0.041114 0.029276 0.041936 0.01004 0.032893 0.0083956 
0.075805 0.074983 0.047033 0.047033 0.074161 0.025824 0.091753 0.010369 
0.068571 0.055254 0.061995 0.041114 0.034866 0.033058 0.033058 0.05624 
0.023522 0.08863 0.082546 0.031414 0.030427 0.093398 0.055418 0.063474 
0.041443 0.067091 0.015794 0.030592 0.03092 0.017767 0.047526 0.0046141 
0.085341 0.050486 0.011684 0.043745 0.049499 0.0592 0.028454 -0.028269 
0.038648 -0.004593 0.012177 0.022864 0.015794 0.018096 0.02681 0.025495 
0.016288 0.016288 0.024344 0.033551 0.021713 0.018754 0.034537 0.013328 
0.033058 0.017932 0.020562 0.023522 0.010697 0.0056006 0.019247 0.043909 
0.078436 0.080409 0.038483 0.046046 0.0085601 0.019905 0.02829 0.049828 
0.14387 0.12201 0.087972 0.01974 1.0539e-005 0.0036276 0.025988 0.063968 
0.23068 0.20586 0.13286 0.011684 0.00017495 0.00297 0.03536 0.087314 
0.23463 0.28231 0.14502 0.039305 0.018589 0.031414 0.04654 0.096521 
0.19649 0.33788 0.12595 0.022371 0.02122 0.024179 0.029276 0.027961 
0.092411 0.13993 0.0079024 -0.017417 0.028783 0.010533 0.038812 0.0046141 
-0.036818 -0.11031 -0.069536 -0.017911 0.0032988 -0.018239 0.01152 -0.010512 
-0.10341 -0.18052 -0.073482 0.012835 -0.0087034 -0.023665 0.0092177 0.0028056 
-0.12675 -0.12429 -0.0077169 0.035688 0.044238 0.037332 0.040128 0.023193 
-0.20436 -0.13201 0.0056006 0.098823 0.13845 0.095371 0.097672 0.060679 
-0.43158 -0.35907 -0.13793 0.076792 0.10754 0.049828 0.062817 -0.028762 
-0.46775 -0.41612 -0.18002 0.064625 0.074819 0.0065871 -0.010019 -0.10489 
-0.16966 -0.14023 -0.069865 0.096357 0.060844 0.040785 -0.0049219 -0.056548 
0.20158 0.13812 0.071202 0.10063 0.093069 0.1003 0.043087 0.058049 
0.29793 0.16163 0.095535 0.062817 0.030427 0.065612 0.068242 0.066269 
0.21243 0.13368 0.10376 0.010369 -0.0075525 0.012177 0.041772 0.027961 
0.21408 0.12381 0.06331 0.0036276 -0.017746 0.0044497 0.011026 0.040785 
0.16804 0.20125 0.083697 -0.028104 -0.021199 0.0051074 0.01152 0.043745 
0.13713 0.22148 0.1026 -0.0022913 -0.0096899 0.018918 -0.0021268 0.064954 
0.094548 0.16673 0.10754 -0.011992 -0.015773 -0.0039354 0.0037921 0.059857 
0.075148 0.11411 0.079094 -0.02087 -0.020706 -0.0087034 0.029276 0.071859 
0.056404 0.075641 0.037004 0.010204 -0.00064712 0.0044497 0.037168 0.037004 
0.026974 0.076627 0.021713 0.038648 0.032071 0.012999 0.025001 0.052623 
-0.0077169 0.03388 0.013986 0.029934 0.036017 0.034866 0.0062583 0.029769 
-0.018239 -0.023501 0.0095465 0.029934 0.024179 0.018425 0.012999 0.03388 
-0.056219 -0.040271 -0.017253 0.058706 0.039141 0.021384 0.0079024 0.0013258 
-0.08269 -0.025309 -0.027775 0.022864 0.043909 0.015959 -0.016102 0.0070803 
-0.078744 -0.033694 -0.011334 0.03092 0.02533 0.048677 -0.0055795 -0.012485 
-0.037147 -0.033859 0.028619 0.028947 0.033551 0.023193 0.015301 0.022864 
-0.00031829 -0.023007 0.0085601 0.055911 0.049006 0.013164 0.015465 0.029934 
0.007738 -0.01528 0.00033937 0.038812 0.059528 0.013492 0.030427 0.038483 
0.0016547 0.024837 0.007738 0.034866 0.025824 0.029769 0.020398 0.023028 
-0.019061 -0.0031133 0.009711 0.050321 0.025495 0.046211 0.015137 0.020562 
-0.019884 -0.017746 0.055089 0.038812 0.023357 0.013328 0.010369 -0.0044286 
-0.0042642 -0.0098543 0.010533 0.032729 0.041114 0.023686 0.020233 0.018425 
0.023357 0.023028 0.024344 0.033387 0.036675 0.018589 0.088301 0.048677 
0.018425 0.044896 0.0087245 0.047033 -0.00031829 0.034702 0.014808 0.02122 
1.0539e-005 0.050979 0.065118 0.031414 0.012506 0.034702 0.0062583 0.028619 
0.022535 0.03651 0.024837 0.017274 0.025001 0.021384 0.017932 0.042758 
0.035853 0.041772 0.04358 0.01415 0.031249 0.00297 0.025495 0.051472 
0.050486 0.079258 0.074161 0.035031 0.012999 -0.0072237 0.031742 0.030263 
0.056076 0.096028 0.062323 0.020069 0.022042 0.028454 0.024015 0.051472 
0.083533 0.12727 0.10474 0.052952 0.029112 -0.015609 -0.009361 0.047197 
0.12316 0.17824 0.1197 0.064625 0.041607 -0.0027845 -0.0024557 0.037332 
0.19237 0.24417 0.1493 0.025166 0.013821 -0.0031133 -0.0050863 0.016288 
0.19172 0.24153 0.10639 -0.020048 -0.014293 -0.019061 0.0079024 0.041936 
0.13845 0.10935 0.062981 -0.047505 -0.022021 -0.014129 0.010369 0.058706 
0.047526 -0.05441 -0.057534 -0.0088678 0.0016547 -0.0027845 0.016945 0.056569 
-0.042737 -0.12527 -0.095185 -0.010512 0.01152 0.01267 0.035524 0.040292 
-0.041093 -0.040435 -0.051944 0.026152 0.047197 0.030427 0.053609 0.055911 
-0.071016 0.069393 0.025659 0.088301 0.06594 0.041278 0.036839 -0.0039354 
-0.086964 0.084519 0.056076 0.079751 0.057062 0.029605 0.010862 -0.011663 
-0.070523 0.039799 0.048184 0.058377 0.041607 0.029441 0.015137 -0.014458 
-0.013636 0.030098 0.041607 0.031085 0.030263 0.047855 0.035195 0.024837 
0.036182 0.083862 0.099316 0.085999 0.03388 0.043251 0.050979 0.020398 
0.097344 0.056076 0.10672 0.017274 0.02122 0.032236 0.049006 0.051965 
0.095864 -0.03616 0.016123 -0.0073881 -0.0050863 0.0059294 0.030756 0.057884 
0.047197 -0.02646 0.027632 0.015301 -0.031557 0.0018191 0.025001 0.077778 
0.049006 0.092576 0.068407 0.033715 0.0023123 0.0024767 0.013986 0.028783 
0.099645 0.16344 0.073504 -0.011992 0.016288 0.0023123 0.027796 0.014479 
0.13236 0.15242 0.052952 0.0060938 0.026974 0.021878 0.025166 0.03092 
0.11691 0.097344 0.037332 0.036182 0.019576 0.022535 0.021056 0.027796 
0.086821 0.097179 0.030263 0.038155 0.033387 0.040128 0.0074092 0.052787 
0.06183 0.087479 0.043745 0.030427 0.039799 0.033058 0.010204 0.025495 
0.03651 0.055911 0.045882 0.016781 0.048019 0.042265 0.032893 0.021056 
0.038812 0.044567 0.045553 0.054596 0.027468 0.038155 0.045882 0.017274 
0.015959 0.052952 0.063145 0.036839 0.025001 0.0069159 0.059035 0.033058 
-0.0095255 0.049664 0.024344 0.025659 0.040292 0.017767 0.036675 0.014643 
-0.023829 1.0539e-005 0.00297 0.0054362 0.038977 0.0016547 0.034373 0.005765 
-0.018404 -0.020541 -0.0019624 0.030263 0.054103 0.045882 0.040785 0.0088889 
0.0421 0.009711 0.01004 0.035688 0.04506 0.058871 0.06035 0.036839 
0.071695 0.052294 0.041443 0.039141 0.045224 0.039141 0.027303 0.025824 
0.078107 0.055582 0.018425 0.065447 0.086821 0.031742 0.055089 0.07038 
0.03799 -0.013965 0.024837 0.018425 0.036017 0.031414 0.01826 0.014643 
0.022535 -0.020377 0.01267 -0.0032777 0.015959 0.041443 0.053445 0.03388 
-0.018239 0.011026 0.017438 -0.018733 0.014808 0.025659 0.064461 0.010533 
-0.0047575 0.026317 0.010369 0.021713 0.01152 0.018754 0.024837 0.016123 
0.041114 0.010697 0.065283 0.018918 0.038648 0.048348 0.022206 -0.00015387 
0.070873 0.05065 0.03536 0.064296 0.056733 0.030592 0.040785 0.030098 
0.086492 0.050979 0.031907 0.080409 0.033222 0.042429 0.080738 0.045389 
0.073668 0.070708 0.053116 0.073668 0.041278 0.042429 0.055254 0.039634 
0.011684 0.090931 0.068407 0.05213 0.039963 0.029276 0.027468 0.036839 
0.044402 0.062652 0.08978 0.013164 0.013328 0.024837 0.034537 0.049499 
0.12085 0.13664 0.090767 -0.017088 -0.040928 0.034537 0.040785 0.069886 
0.23381 0.30319 0.17528 -0.0059084 -0.038956 0.021878 0.047033 0.088136 
0.25041 0.41253 0.24499 0.017274 -0.0098543 0.022206 0.045882 0.097672 
0.12579 0.30648 0.18794 -0.0027845 0.011191 0.019083 0.0056006 0.028454 
-0.17887 -0.14089 -0.1598 -0.057699 -0.025802 -0.028269 -0.041586 -0.065426 
-0.39935 -0.57018 -0.39606 -0.068057 0.023851 -0.0075525 -0.068879 -0.10456 
-0.43338 -0.6389 -0.41102 0.0021479 0.080902 0.032729 0.0079024 -0.079401 
-0.35249 -0.48386 -0.22754 0.13253 0.15555 0.1105 0.092247 -0.013143 
-0.20419 -0.15109 0.049006 0.20602 0.16196 0.11839 0.1008 0.060844 
0.011026 0.17889 0.21227 0.19024 0.12661 0.097508 0.054925 0.048348 
0.24877 0.30187 0.20503 0.092247 0.03536 0.042923 0.025495 0.037004 
0.35235 0.28954 0.14091 0.013164 0.00050378 0.0037921 0.023686 0.0689 
0.24893 0.22789 0.12809 -0.037476 -0.011827 -0.0013048 0.017274 0.079587 
0.10589 0.16179 0.061501 -0.04323 -0.046519 -0.0034422 0.0067515 0.081724 
0.030756 0.060022 0.014972 -0.028926 -0.041257 -0.0024557 0.036839 0.039305 
-0.0082102 0.053609 0.014972 -0.010841 -0.0082102 0.0083956 0.017438 -0.004593 
0.021713 0.070544 0.03651 -0.017088 0.0085601 1.0539e-005 0.020891 0.011848 
0.06183 0.088301 0.066105 0.012506 0.0044497 0.017603 0.012177 0.014972 
0.034537 0.059857 -0.009361 0.036017 0.043087 0.031742 0.017603 0.020562 
-0.018897 0.030263 -0.0026201 0.032071 0.037826 0.014808 0.005765 0.023686 
-0.027611 0.0090533 -0.003771 0.037332 0.074161 0.043087 0.025001 0.018425 
-0.0083746 -0.0091966 0.025166 0.023193 0.038977 0.016616 0.034209 0.04358 
-0.0004827 -0.0087034 -0.01528 0.056898 0.036839 0.0090533 0.039634 0.0227 
-0.0083746 0.007738 -0.015444 0.034044 0.035853 0.0065871 0.016452 0.027796 
-0.0014692 0.0031344 -0.003771 0.041772 0.052623 0.022535 -0.017746 0.007738 
-0.0050863 0.022042 0.0019835 0.041936 0.032729 0.026974 0.027796 0.049335 
0.0065871 0.0082312 0.019411 0.060844 0.036839 0.018754 0.035195 0.04358 
0.00099702 -0.0024557 -0.0055795 0.039799 0.019411 -0.010512 0.016945 0.022206 
-0.017746 0.0013258 0.0070803 0.025166 0.046868 0.007738 0.019576 0.021056 
-0.033037 0.0074092 0.046211 0.028125 0.080409 0.0074092 0.0037921 0.042758 
0.0054362 0.033551 0.048019 0.026974 0.032564 0.0098754 0.0067515 0.024673 
0.011191 0.020398 0.050157 0.042923 0.046704 0.024015 0.02681 0.031578 
0.0037921 0.016288 0.0074092 0.024837 0.022864 0.007738 0.010862 0.0044497 
0.0047785 0.039799 0.0082312 0.018589 0.026646 0.026152 1.0539e-005 0.038155 
0.044402 0.0786 0.052459 0.015465 0.0098754 0.022371 0.0072447 0.033551 
0.10606 0.077449 0.056733 0.03388 0.042594 0.024179 0.045882 0.045389 
0.10869 0.11444 0.048677 0.042265 0.010533 -0.0059084 0.03536 0.053609 
0.11214 0.14239 0.084519 0.018918 0.013164 0.0079024 0.035524 0.067091 
0.12201 0.10228 0.050486 0.012177 0.005765 0.016945 0.0021479 0.069229 
0.12677 0.059857 0.089123 0.02122 -0.0044286 0.016123 0.021549 0.080573 
0.11477 0.10507 0.11576 0.085177 0.04095 0.0421 0.05772 0.05476 
0.11757 0.22756 0.14733 0.055747 0.042265 0.020069 0.038319 0.011355 
0.11395 0.25929 0.096521 0.033551 0.048677 -0.010512 0.01563 -0.0075525 
0.082546 0.22493 0.086328 0.00050378 -0.016431 -0.0077169 -0.0052507 -0.020377 
0.034702 0.16459 0.033551 -0.013471 -0.0050863 -0.017911 -0.0080457 0.01415 
-0.0044286 -0.0087034 -0.049149 -0.046847 0.00033937 -0.018733 0.010204 0.0056006 
-0.035338 -0.20978 -0.10423 -0.038627 0.0024767 -0.013143 0.0013258 0.042758 
0.0037921 -0.22787 -0.06296 0.026317 0.021384 0.017438 0.041443 0.082382 
0.1003 -0.032379 0.072846 0.085341 0.06183 0.074654 0.040456 0.10721 
0.19418 0.19501 0.11099 0.11198 0.066927 0.050979 0.051801 0.08567 
0.10984 0.20438 0.081067 0.079587 0.049828 0.01826 0.034537 0.045718 
-0.06707 0.087972 0.020727 0.03388 -0.001798 0.0016547 0.026646 -0.040928 
-0.20912 -0.015116 0.027303 0.0041209 -0.010019 -0.0034422 -0.0078813 -0.047505 
-0.20715 -0.063453 -0.016102 0.010204 0.0324 0.020398 -0.00031829 -0.024652 
-0.057205 -0.019719 0.047362 0.054103 0.047362 0.028454 0.027961 0.021056 
0.066434 0.060844 0.071037 0.048348 0.03388 0.039799 0.053774 0.038648 
0.13302 0.13582 0.07597 0.031742 0.0031344 0.029605 0.038648 0.058377 
0.21704 0.14733 0.079422 -0.0016336 -0.0057439 0.0324 0.042594 0.068078 
0.23068 0.14667 0.054103 0.019083 0.014972 0.022371 0.034209 0.052623 
0.2103 0.15653 0.072024 0.0062583 0.029112 0.020398 0.044402 0.049992 
0.15719 0.14749 0.059693 0.007738 0.022206 0.025988 0.037332 0.023522 
0.074819 0.090931 0.080244 0.029441 0.023028 0.036346 0.031907 0.032071 
0.020233 0.0047785 0.0052718 0.03536 0.027632 0.028947 0.015794 0.021713 
-0.02942 -0.031392 -0.0082102 0.036182 0.029112 0.039634 0.016781 0.013986 
-0.06444 -0.038791 -0.0049219 0.017274 -0.0055795 0.027632 -0.013965 -0.020706 
-0.086307 -0.01528 0.027468 0.047362 0.028783 0.023028 0.013328 0.01152 
-0.070852 -0.0072237 0.03092 0.038319 0.042923 0.022371 0.032893 0.014315 
-0.006566 0.0018191 0.032236 0.038319 0.0689 0.053281 0.026646 0.03536 
-0.021856 -0.0039354 1.0539e-005 0.053116 0.039799 0.031742 0.026317 0.038155 
-0.034352 0.00066819 0.01415 0.067585 0.013328 0.024508 0.029769 0.043909 
-0.065755 -0.029913 0.05065 0.048019 0.03536 0.035688 0.074654 -0.0096899 
-0.078908 -0.024652 0.010533 0.017274 0.035524 0.032236 0.027961 -0.011992 
-0.051944 -0.025638 0.023357 0.052623 0.039963 0.078272 -0.017417 -0.07266 
-0.00064712 -0.0088678 0.022206 0.044238 0.022042 0.029441 0.0088889 -0.065097 
0.060844 -0.010183 0.027796 0.0227 0.0088889 0.013328 0.017603 0.0082312 
0.087643 0.004943 0.016452 0.01004 0.022042 0.010862 0.030427 0.068407 
0.10145 0.064132 0.043909 0.053938 0.028947 0.042594 0.058049 0.085506 
0.058377 0.084519 0.039634 0.055089 0.01267 0.019411 -0.0004827 0.06594 
0.040292 0.13582 0.090274 0.017438 0.015301 0.005765 0.024837 0.054925 
0.034702 0.1248 0.098001 0.011355 0.010369 0.0072447 0.024673 0.03651 
0.067749 0.080244 0.042265 0.023193 0.031578 0.031085 0.040292 0.031907 
0.13253 0.069886 0.028454 0.046211 0.061337 0.074654 0.039305 0.048841 
0.090109 0.066763 0.022371 0.071531 0.070873 0.065283 0.035524 0.050321 
-0.02235 0.052623 0.017438 0.070708 0.051308 0.029605 0.016452 0.018425 
-0.099295 0.075312 0.036182 0.044731 0.037332 0.0060938 0.0095465 0.010369 
-0.017417 0.15078 0.071531 0.042758 0.039141 0.015301 0.043745 0.053116 
0.059035 -0.012485 -0.008539 0.022206 0.021878 0.041443 0.036182 0.057062 
0.01152 -0.16276 -0.13744 0.015301 0.033387 0.031578 0.020069 0.010204 
-0.11393 -0.20518 -0.13514 -0.0021268 0.067585 0.020891 0.00083261 -0.045039 
-0.2032 -0.1889 -0.087293 0.021056 0.056076 0.01267 -0.021363 -0.089102 
-0.15109 -0.10637 0.020069 0.053445 0.04654 0.035853 0.041607 -0.038791 
0.019247 0.028454 0.12628 0.10704 0.042923 0.061337 0.060022 0.034209 
0.14798 0.14404 0.1978 0.088136 0.051636 0.059528 0.056404 0.097344 
0.1858 0.13434 0.13467 0.038977 0.044567 0.025988 0.066598 0.09274 
0.11888 0.024673 -0.0098543 0.014479 -0.034681 -0.00064712 0.034866 0.058049 
0.061995 -0.01939 -0.041093 -0.029748 -0.029913 -0.008539 0.025001 0.034044 
0.049664 0.097344 -0.0014692 -0.021363 -0.015444 0.026974 0.019576 0.04506 
0.077285 0.16097 0.055911 -0.0044286 0.025495 0.0023123 0.0227 0.040456 
0.083862 0.13023 0.03799 0.033222 0.02533 0.018754 0.024837 0.042265 
0.09274 0.10573 0.033058 0.03388 0.01826 0.033551 0.028783 0.022535 
0.06594 0.08715 0.037168 0.029112 0.036182 0.030592 0.049828 0.018425 
0.056733 0.055089 0.075476 0.039634 0.05065 0.029112 0.0059294 0.01711 
0.031907 0.031249 0.032729 0.038812 0.042594 0.012342 0.019411 0.019247 
0.012999 0.042594 0.025166 0.035853 0.027632 -0.0054151 -0.0044286 0.023357 
0.023686 0.01152 0.0088889 0.01826 0.013821 0.0011614 0.020891 0.020398 
0.02533 0.018754 0.0059294 0.052294 0.023686 0.01415 0.035031 0.028783 
0.014972 0.012506 0.018918 0.020891 0.042594 0.012506 0.03651 0.024015 
-0.0075525 0.00050378 -0.017253 0.030263 0.035688 0.023851 0.048841 0.0028056 
-0.0016336 0.014972 -0.015116 0.030098 0.048841 0.020727 0.037168 0.020562 
-0.0032777 0.038483 -0.042573 0.073175 0.0080668 0.037661 0.02533 0.03092 
0.072188 0.080738 0.067091 0.037332 0.081067 0.055254 0.039799 0.026646 
0.11872 0.062159 0.053938 0.035853 0.043251 0.020398 0.04654 0.050157 
0.093233 0.066763 0.04917 0.05624 0.032236 0.0060938 0.038319 0.038648 
0.057884 0.077285 0.051636 0.021549 0.022371 0.011684 0.040785 0.032729 
0.054267 0.083204 0.046211 0.0037921 0.0070803 0.037826 0.049664 0.027961 
0.016452 0.030263 0.05065 0.01563 0.018425 0.024837 0.03651 0.059857 
-0.035996 -0.025145 0.013657 0.021549 -0.010019 -0.022021 0.020562 0.059857 
-0.05326 -0.052109 0.0060938 -0.0031133 -0.0082102 -0.00097594 0.0082312 0.025824 
-0.032215 -0.004593 0.0075736 -0.0067304 -0.0029489 0.018918 0.01563 0.0013258 
-0.014458 0.04654 0.02533 0.00033937 0.021549 0.030756 0.040456 0.0042853 
0.0065871 0.053938 -0.033365 0.023851 0.0065871 0.021384 0.029934 0.0069159 
0.0088889 0.037826 -0.017746 0.0052718 0.0083956 0.0023123 0.0062583 0.01152 
0.034866 0.044402 -0.010841 0.0026412 0.00033937 -0.011992 -0.0096899 0.012342 
0.098823 0.093233 0.056733 0.040128 0.027303 -0.0077169 0.016288 0.07301 
0.21983 0.17659 0.12349 0.062323 0.020069 0.026152 0.055747 0.094384 
0.29744 0.23923 0.16804 0.053445 0.049828 0.031742 0.046046 0.12743 
0.22674 0.24269 0.15275 0.056733 0.024837 0.021384 0.024015 0.11642 
0.060844 0.19188 0.098659 0.073832 0.039963 0.042594 0.04917 0.085012 
-0.065426 0.10293 0.039141 0.035688 0.045882 0.044896 0.056404 0.052952 
-0.10078 -0.019226 -0.058192 0.018754 0.0026412 0.041443 0.027961 -0.060987 
-0.071674 -0.11689 -0.085813 -0.020706 -0.0073881 -0.02942 -0.040106 -0.095514 
-0.13234 -0.12281 -0.07562 0.029934 0.0039565 -0.034681 -0.044052 -0.10357 
-0.16539 -0.053095 -0.0021268 0.026646 0.039305 -0.0077169 -0.014622 -0.033365 
-0.040928 0.015794 0.026481 0.030263 0.049664 0.037497 0.032236 0.048841 
0.099645 0.089287 0.025988 0.056569 0.030592 0.037497 0.065776 0.099645 
0.15834 0.090438 0.041936 0.0227 0.018918 0.023357 0.041772 0.093891 
0.10425 0.034044 0.06331 0.0032988 0.0079024 0.0092177 0.052294 0.081889 
0.043416 0.051308 0.098659 0.036346 0.017932 0.027139 0.02829 0.073339 
-0.011827 0.038483 0.072024 0.062981 0.0062583 0.035195 0.023686 0.064954 
-0.054904 0.029934 0.0227 0.022371 0.012177 0.022864 0.031249 0.017932 
-0.051287 0.067091 0.047855 0.016123 0.020398 0.016288 0.017767 0.012999 
-0.013471 0.12168 0.061008 0.036839 0.014479 -0.0031133 -0.0059084 -0.0078813 
0.034866 0.18744 0.058706 0.042594 0.028619 0.014972 0.0087245 -0.019061 
0.08863 0.2001 0.067256 0.0324 0.017438 0.029769 -0.0031133 0.005765 
0.12628 0.11642 0.0016547 0.0098754 0.011191 0.0036276 0.025824 0.026317 
0.1345 -0.03912 -0.030242 0.022206 0.0085601 -0.012649 0.023357 0.062488 
0.098659 -0.029255 0.033715 0.023851 0.0064227 0.012835 0.016945 0.045882 
-0.0054151 -0.012156 0.021384 0.046375 0.043909 0.027632 0.010533 0.03947 
-0.086964 0.0064227 0.0031344 0.061995 0.063968 0.054103 0.01563 -0.008539 
-0.050136 -0.068714 0.082546 0.045224 0.073339 0.025824 0.040785 0.047362 
0.13943 0.08978 0.085999 0.024179 0.0023123 0.010369 0.038483 0.051143 
0.20191 0.13598 0.063474 0.015794 -0.0044286 0.0087245 0.01711 0.06479 
0.061337 0.10573 0.0052718 0.030592 0.037168 0.029934 0.0056006 -0.015938 
-0.18709 0.11066 -0.013636 0.0036276 0.061501 0.042923 -0.021692 -0.072825 
-0.27177 -0.073482 -0.10291 -0.016924 0.0021479 0.0092177 0.0014903 -0.092061 
-0.23477 -0.20386 -0.11886 0.024508 0.025824 0.023028 0.042923 0.0016547 
-0.12396 -0.27768 -0.081868 0.078272 0.06331 0.051636 0.062488 0.054103 
-0.0073881 -0.18167 0.037497 0.11411 0.10096 0.096357 0.055582 0.098659 
0.097179 0.013492 0.11576 0.11181 0.078272 0.067749 0.077778 0.098001 
0.12875 0.14223 0.12595 0.050157 0.048184 0.035524 0.064625 0.075641 
0.12102 0.15045 0.051308 0.042265 0.028619 0.011848 0.023851 0.01974 
0.10425 0.14848 0.054596 0.014972 0.015794 0.0013258 0.00083261 0.032236 
0.095699 0.14042 0.077285 0.011848 0.020233 0.00066819 0.019247 0.03388 
0.090931 0.13302 0.086821 0.029276 0.013328 0.028947 0.023357 0.050321 
0.10606 0.14733 0.060022 0.027796 0.01711 0.021056 0.039963 0.054596 
0.10359 0.087808 0.023193 -0.0049219 0.015301 0.026646 0.032564 0.01711 
0.052787 -0.0044286 -0.041422 0.0059294 0.011355 0.010204 0.042265 0.020233 
0.038977 -0.067564 -0.036325 0.0079024 -0.0050863 0.030592 0.031085 0.014315 
0.03947 -0.036983 0.015959 0.010204 0.0031344 0.022864 0.035524 0.027961 
0.020727 0.023851 0.030098 0.031742 0.030263 0.018096 0.030098 0.004943 
-0.001798 0.068736 0.061337 0.06183 0.048841 0.022042 0.013164 0.026317 
-0.030406 0.056898 0.043416 0.045882 0.028947 0.056404 -0.00015387 0.014643 
-0.034516 0.049992 0.047033 0.036839 0.021549 0.048513 0.0054362 0.020069 
0.021878 0.042429 0.03947 0.023357 0.036839 0.01711 0.024508 0.028783 
0.070051 0.042923 0.017932 0.052787 0.048348 0.026974 0.04506 0.052459 
0.10096 0.060844 0.021713 0.012177 0.02681 0.034044 0.038483 0.041772 
0.096028 0.0421 0.030427 0.020727 0.012177 0.031414 0.02681 0.058049 
0.071859 0.049664 0.062159 0.037168 0.020069 0.026646 0.025824 0.047033 
0.035195 0.022042 0.030427 0.03947 0.031578 0.027139 0.025659 0.03092 
0.049664 0.03651 0.037168 0.029441 0.039799 0.01004 0.04917 0.038812 
0.020562 0.042758 0.060844 0.050814 0.032893 0.036017 0.050486 0.045718 
-0.010841 0.076627 0.10589 0.065776 0.040292 0.058871 0.041607 0.028125 
0.0092177 0.072188 0.052459 0.037168 0.046046 0.055747 0.041772 0.018918 
0.075641 0.049335 0.011355 0.0083956 0.041772 0.045718 0.040785 0.019083 
0.15883 0.060679 0.014808 0.0011614 -0.014458 0.01267 -0.0004827 0.016616 
0.22674 0.087972 0.062159 0.014479 -0.015773 -0.0014692 0.0039565 0.053938 
0.21046 0.16722 0.12201 -0.0095255 -0.014293 0.025166 -0.0096899 0.054596 
0.11707 0.20027 0.12168 -0.0059084 0.020398 0.017603 0.005765 0.012013 
0.06183 0.15472 0.090931 0.023851 0.018096 0.029934 0.010697 -0.0014692 
0.05772 0.1516 0.026646 0.029769 0.026646 0.018754 0.042758 0.053281 
-0.03764 0.0090533 -0.02087 -0.01117 0.065447 0.0082312 0.029934 0.050979 
-0.22589 -0.10291 -0.066741 -0.017088 0.011848 -0.00064712 -0.011992 -0.003771 
-0.22392 -0.11607 -0.091568 -0.018075 0.020233 -0.0088678 -0.00064712 -0.066741 
-0.0077169 -0.037147 -0.022843 0.037661 0.024837 0.029276 0.0039565 -0.0027845 
0.093726 -0.087293 -0.017746 0.087808 0.062159 0.041114 0.042429 0.028125 
-0.014787 -0.10324 -0.019884 0.067585 0.099974 0.064132 0.05065 0.047033 
-0.1547 -0.12725 -0.031721 0.094877 0.097508 0.062981 0.069886 0.047033 
-0.090581 0.080573 0.081724 0.075641 0.10326 0.054925 0.083368 0.090438 
0.037497 0.232 0.17133 0.075476 0.064954 0.049992 0.059857 0.091425 
0.11543 0.21852 0.18185 0.041772 0.013328 -0.041093 0.021549 0.080409 
0.11411 0.10885 0.033551 -0.026131 -0.014458 -0.017088 -0.01676 0.049006 
0.079751 0.042923 0.013657 -0.034188 0.0028056 -0.012156 -0.027611 -0.009361 
0.099481 0.076792 0.057062 -0.0062372 -0.020212 0.0032988 -0.015116 -0.030899 
0.11905 0.11806 0.085012 0.049499 0.0082312 0.0075736 0.017932 -0.0052507 
0.086492 0.11132 0.075312 0.0060938 0.013164 -0.013965 0.014479 0.033222 
0.044073 0.085341 0.040456 0.022206 0.0059294 -0.013143 0.011191 0.051143 
0.00083261 0.039799 0.016616 0.017932 0.010533 0.021713 0.019411 0.032236 
-0.010676 0.030263 0.027796 0.040621 0.019576 0.005765 0.029769 0.028454 
-0.044381 0.012506 0.030427 -0.00064712 0.038319 -0.013965 0.031742 0.027139 
-0.026789 0.009711 0.011848 0.019247 0.05213 0.031414 0.040785 0.018096 
-0.033694 0.014643 -0.0047575 0.051308 0.044731 0.02681 0.035195 0.0062583 
-0.017253 0.0069159 0.011355 0.049499 0.018096 0.027468 0.031249 0.0088889 
-0.001798 0.0065871 0.032893 0.032236 0.040128 0.01004 0.026152 0.040292 
-0.0064016 0.023357 0.034044 0.031907 0.069064 0.018425 0.041114 0.025988 
0.0087245 0.012999 0.0013258 0.060022 0.049499 0.034702 0.038319 0.051965 
0.024344 0.01563 0.010697 0.038977 0.029112 0.031414 0.02829 0.016123 
0.038977 0.0031344 0.019083 0.045389 0.022371 0.0080668 0.042758 0.041936 
0.034044 0.019247 0.057391 0.043909 0.042594 0.0041209 0.016452 0.036675 
0.02533 0.026646 0.038155 0.034702 0.03092 -0.0026201 0.0421 0.047197 
0.017932 0.020727 0.010533 0.020233 0.022042 0.010697 0.034866 0.01711 
0.012013 0.0090533 0.024673 0.019411 0.033551 0.0056006 0.015301 0.035524 
0.030592 0.013986 0.067091 0.035195 0.031414 0.0092177 0.026317 0.016945 
0.06479 0.068571 0.070873 0.025495 0.023686 -0.00064712 0.036839 0.036182 
0.029441 0.11115 0.098494 0.049335 0.019411 0.012999 0.047691 -0.016102 
0.02829 0.14174 0.10228 0.042758 0.025001 0.027139 0.035031 0.0090533 
0.051308 0.15686 0.079258 0.03799 0.039963 0.027303 0.018425 0.030098 
0.065283 0.11674 0.047855 0.012999 0.045389 0.0059294 0.030427 0.031907 
